ECG_VALUE,ECG_TIME,BPM_VALUE,BPM_TIME,AUX_VALUE,AUX_TIME,PPG_VALUE,PPG_TIME
2069,204485,-4.7888,204485,53,204485,64514,204479,
2113,204489,-4.7888,204489,52,204489,64533,204489,
2043,204499,-4.711919999999999,204499,53,204499,64582,204497,
2067,204519,-4.7888,204519,54,204519,64602,204520,
2033,204541,-4.7888,204541,53,204541,64590,204542,
2133,204549,-4.63504,204549,53,204549,64596,204550,
2132,204551,-4.7888,204551,53,204551,64620,204552,
2048,204559,-4.711919999999999,204559,53,204559,64606,204560,
2033,204561,-4.7888,204561,53,204561,64629,204562,
2083,204569,-4.558160000000001,204569,53,204569,64616,204570,
2096,204571,-4.7888,204571,52,204571,64600,204572,
2049,204579,-4.711919999999999,204579,52,204579,64619,204580,
2042,204581,-4.711919999999999,204581,53,204581,64607,204582,
2106,204589,-4.7888,204589,53,204589,64621,204590,
2120,204591,-4.7888,204591,53,204591,64569,204592,
2061,204599,-4.711919999999999,204599,53,204599,64632,204600,
2049,204601,-4.711919999999999,204601,54,204601,64567,204602,
2083,204609,-4.7888,204609,53,204609,64637,204610,
2097,204611,-4.7888,204611,53,204611,64552,204612,
2053,204619,-4.63504,204619,53,204619,64619,204620,
2040,204621,-4.7888,204621,53,204621,64550,204622,
2102,204629,-4.711919999999999,204629,53,204629,64600,204630,
2120,204631,-4.7888,204631,53,204631,64585,204632,
2113,204639,-4.865679999999999,204639,53,204639,64591,204640,
2106,204641,-4.7888,204641,53,204641,64603,204642,
2122,204651,-4.7888,204651,52,204651,64619,204652,
2091,204691,-4.711919999999999,204691,54,204691,64625,204692,
2073,204699,-4.711919999999999,204699,54,204699,64657,204700,
2102,204709,-4.711919999999999,204709,53,204709,64638,204702,
1994,204737,-4.711919999999999,204737,53,204737,64713,204738,
1995,204761,-4.711919999999999,204761,54,204761,64659,204760,
2088,204771,-4.7888,204771,53,204771,64667,204770,
2045,204789,-4.711919999999999,204789,53,204789,64698,204790,
2966,204817,-4.711919999999999,204817,53,204817,64672,204818,
3012,204819,-4.711919999999999,204819,53,204819,64723,204820,
2797,204827,-4.711919999999999,204827,53,204827,64720,204828,
2043,204867,-4.7888,204867,53,204867,64726,204867,
2039,204879,-4.7888,204879,53,204879,64712,204879,
2095,204915,-4.7888,204915,54,204915,64728,204909,
2078,204917,-4.711919999999999,204917,52,204917,64723,204917,
2068,204919,-4.63504,204919,53,204919,64730,204919,
2070,204921,-4.711919999999999,204921,53,204921,64730,204919,
2085,204939,-4.711919999999999,204939,53,204939,64732,204939,
2160,204979,-4.7888,204979,53,204979,64779,204979,
2198,204987,-4.7888,204987,54,204987,64697,204982,
2214,204989,-4.63504,204989,54,204989,64783,204989,
2208,205021,-4.94256,205021,54,205021,64790,205022,
2244,205029,-4.7888,205029,58,205029,64775,205029,
2241,205031,-4.7888,205031,54,205031,64772,205032,
2207,205036,-4.711919999999999,205036,54,205036,64772,205032,
2158,205041,-4.711919999999999,205041,53,205041,64735,205042,
2173,205049,-4.63504,205049,53,205049,64675,205048,
2018,205061,-4.711919999999999,205061,53,205061,64414,205062,
1891,205089,-4.711919999999999,205089,54,205089,63977,205090,
1897,205091,-4.63504,205091,53,205091,63851,205092,
1837,205099,-4.7888,205099,53,205099,63912,205100,
1827,205101,-4.711919999999999,205101,53,205101,63853,205102,
1921,205111,-4.865679999999999,205111,52,205111,63853,205112,
1941,205121,-4.7888,205121,52,205121,63871,205122,
2010,205181,-4.711919999999999,205181,54,205181,64159,205181,
2035,205186,-4.7888,205186,53,205186,64159,205181,
2089,205191,-4.711919999999999,205191,53,205191,64263,205190,
2104,205196,-4.7888,205196,52,205196,64263,205190,
2102,205197,-4.711919999999999,205197,52,205197,64295,205198,
2048,205206,-4.7888,205206,52,205206,64311,205200,
2076,205209,-4.7888,205209,52,205209,64301,205210,
2080,205221,-4.711919999999999,205221,53,205221,64351,205220,
2090,205247,-4.711919999999999,205247,52,205247,64452,205248,
2093,205251,-4.63504,205251,53,205251,64484,205250,
2062,205256,-4.711919999999999,205256,53,205256,64484,205250,
2122,205267,-4.711919999999999,205267,52,205267,64466,205268,
2129,205291,-4.7888,205291,53,205291,64541,205290,
2106,205296,-4.711919999999999,205296,53,205296,64541,205290,
2089,205307,-4.711919999999999,205307,53,205307,64527,205307,
2086,205349,-4.711919999999999,205349,53,205349,64547,205349,
2103,205351,-4.711919999999999,205351,53,205351,64547,205349,
2106,205355,-4.558160000000001,205355,54,205355,64547,205349,
2181,205387,-4.7888,205387,53,205387,64560,205387,
2211,205391,-4.7888,205391,53,205391,64567,205389,
2192,205395,-4.711919999999999,205395,53,205395,64567,205389,
2181,205397,-4.711919999999999,205397,53,205397,64554,205397,
2158,205401,-4.558160000000001,205401,53,205401,64577,205399,
2116,205407,-4.7888,205407,53,205407,64544,205407,
2005,205447,-4.7888,205447,52,205447,64577,205442,
2038,205455,-4.865679999999999,205455,53,205455,64582,205452,
2032,205485,-4.7888,205485,53,205485,64591,205482,
2057,205489,-4.7888,205489,53,205489,64671,205487,
2073,205491,-4.711919999999999,205491,53,205491,64641,205492,
2045,205501,-4.711919999999999,205501,53,205501,64617,205502,
1993,205519,-4.7888,205519,53,205519,64659,205519,
2515,205537,-4.63504,205537,53,205537,64637,205538,
3010,205549,-4.7888,205549,54,205549,64679,205549,
2963,205551,-4.711919999999999,205551,54,205551,64724,205551,
2080,205589,-4.711919999999999,205589,53,205589,64726,205589,
2121,205591,-4.711919999999999,205591,53,205591,64670,205591,
2104,205598,-4.711919999999999,205598,53,205598,64670,205591,
2061,205601,-4.7888,205601,52,205601,64681,205601,
2104,205609,-4.7888,205609,53,205609,64694,205609,
2102,205641,-4.711919999999999,205641,54,205641,64704,205641,
2150,205688,-4.711919999999999,205688,54,205688,64716,205681,
2173,205689,-4.711919999999999,205689,53,205689,64734,205689,
2128,205699,-4.711919999999999,205699,54,205699,64748,205700,
2118,205701,-4.711919999999999,205701,54,205701,64748,205700,
2178,205705,-4.63504,205705,53,205705,64748,205700,
2224,205745,-4.558160000000001,205745,53,205745,64767,205740,
2240,205747,-4.711919999999999,205747,54,205747,64756,205747,
2036,205791,-4.711919999999999,205791,54,205791,64402,205790,
1916,205799,-4.711919999999999,205799,53,205799,64142,205800,
1872,205815,-4.711919999999999,205815,52,205815,63965,205810,
1849,205817,-4.711919999999999,205817,52,205817,63906,205817,
1902,205827,-4.711919999999999,205827,52,205827,63861,205827,
1932,205829,-4.7888,205829,52,205829,63848,205830,
1981,205849,-4.711919999999999,205849,53,205849,63833,205850,
1958,205859,-4.711919999999999,205859,53,205859,63822,205857,
1959,205861,-5.5576,205861,56,205861,63822,205857,
1990,205865,-6.3264000000000005,205865,55,205865,63822,205857,
2065,205871,-5.63448,205871,55,205871,63934,205871,
2024,205879,-2.02112,205879,54,205879,63852,205878,
2012,205881,-2.097999999999999,205881,54,205881,63981,205881,
2089,205891,-3.558719999999999,205891,53,205891,64047,205891,
2084,205907,-2.02112,205907,53,205907,64155,205908,
2029,205941,2.207280000000001,205941,54,205941,64358,205941,
2093,205947,2.207280000000001,205947,54,205947,64303,205948,
2061,205957,4.974959999999999,205957,53,205957,64333,205958,
2059,205961,5.59,205961,54,205961,64433,205961,
2099,205967,2.43792,205967,53,205967,64360,205968,
2104,205969,3.9755199999999995,205969,54,205969,64360,205968,
2038,205979,5.359359999999999,205979,54,205979,64367,205978,
2089,205991,3.6679999999999993,205991,54,205991,64481,205991,
2021,206021,4.359919999999999,206021,54,206021,64518,206022,
2064,206039,6.743200000000002,206039,57,206039,64576,206039,
2136,206051,5.513120000000001,206051,57,206051,64577,206051,
2057,206057,7.127600000000001,206057,57,206057,64577,206051,
2032,206059,5.89752,206059,57,206059,64586,206059,
2122,206069,5.28248,206069,58,206069,64597,206069,
2142,206091,5.59,206091,60,206091,64557,206091,
2118,206097,4.667439999999999,206097,62,206097,64557,206091,
2222,206111,6.58944,206111,61,206111,64520,206111,
2065,206119,4.974959999999999,206119,62,206119,64524,206119,
2037,206151,5.051840000000002,206151,61,206151,64561,206151,
2037,206169,4.667439999999999,206169,61,206169,64591,206169,
2044,206171,4.744320000000002,206171,61,206171,64571,206171,
2030,206177,7.435120000000001,206177,61,206177,64571,206171,
2019,206179,5.743760000000002,206179,61,206179,64590,206179,
2012,206181,6.2819199999999995,206181,60,206181,64589,206181,
2043,206199,6.358800000000002,206199,53,206199,64592,206199,
2058,206207,5.743760000000002,206207,53,206207,64638,206201,
2080,206225,6.128160000000001,206225,60,206225,64662,206219,
2019,206231,5.666879999999999,206231,61,206231,64669,206229,
2460,206245,5.59,206245,61,206245,64666,206239,
2821,206251,8.357680000000002,206251,62,206251,64673,206249,
2806,206261,7.8964,206261,61,206261,64676,206259,
1792,206269,8.58832,206269,61,206269,64716,206269,
1134,206281,6.666319999999999,206281,61,206281,64700,206279,
1500,206285,6.128160000000001,206285,62,206285,64700,206279,
1656,206287,6.89696,206287,63,206287,64673,206287,
1787,206289,8.81896,206289,62,206289,64663,206289,
1992,206297,7.665760000000002,206297,63,206297,64657,206297,
2129,206309,6.973839999999999,206309,63,206309,64631,206309,
2083,206315,8.51144,206315,63,206315,64631,206309,
2075,206319,6.666319999999999,206319,62,206319,64663,206319,
2114,206325,9.20336,206325,63,206325,64663,206319,
2136,206327,7.5120000000000005,206327,65,206327,64658,206327,
2152,206329,8.050160000000002,206329,62,206329,64675,206329,
2126,206337,5.28248,206337,63,206337,64675,206337,
2122,206349,8.665200000000002,206349,64,206349,64699,206349,
2139,206351,6.512560000000001,206351,61,206351,64699,206349,
2109,206365,7.819520000000001,206365,62,206365,64681,206359,
2126,206385,10.51032,206385,62,206385,64687,206382,
2171,206391,7.8964,206391,66,206391,64698,206392,
2123,206397,7.127600000000001,206397,62,206397,64698,206392,
2209,206411,6.435680000000001,206411,63,206411,64644,206412,
2174,206415,8.665200000000002,206415,61,206415,64644,206412,
2147,206417,10.971600000000002,206417,60,206417,64748,206417,
2273,206449,11.279120000000002,206449,59,206449,64753,206447,
2270,206451,9.664640000000002,206451,62,206451,64740,206452,
2181,206459,11.663520000000002,206459,61,206459,64690,206459,
2172,206461,9.58776,206461,62,206461,64694,206461,
2110,206481,10.89472,206481,59,206481,64596,206481,
2099,206491,12.1248,206491,58,206491,64440,206491,
1953,206501,12.1248,206501,59,206501,64178,206501,
1823,206519,11.048480000000001,206519,58,206519,63861,206519,
1811,206521,10.356560000000002,206521,58,206521,63839,206522,
1835,206525,10.433440000000001,206525,59,206525,63839,206522,
1862,206537,11.81728,206537,57,206537,63716,206537,
1834,206541,9.8184,206541,57,206541,63721,206542,
1940,206551,11.43288,206551,58,206551,63752,206551,
1934,206561,13.047360000000001,206561,60,206561,63771,206561,
2038,206571,11.048480000000001,206571,61,206571,63816,206571,
1956,206579,12.662960000000002,206579,58,206579,63781,206579,
2050,206589,13.585520000000002,206589,57,206589,63830,206589,
2075,206591,9.28024,206591,57,206591,63842,206591,
2024,206601,11.43288,206601,56,206601,63898,206601,
2094,206611,12.739840000000001,206611,56,206611,63982,206611,
2027,206617,13.969920000000002,206617,56,206617,63982,206611,
2002,206619,10.2028,206619,54,206619,64027,206619,
2120,206631,12.8936,206631,56,206631,64129,206631,
2024,206637,11.740400000000001,206637,56,206637,64129,206631,
2011,206639,14.20056,206639,54,206639,64170,206639,
2012,206641,11.89416,206641,56,206641,64197,206641,
2121,206651,11.20224,206651,55,206651,64232,206651,
2075,206657,12.43232,206657,53,206657,64232,206651,
2064,206659,13.662400000000002,206659,54,206659,64280,206659,
2077,206671,14.50808,206671,53,206671,64357,206671,
2034,206679,11.20224,206679,54,206679,64340,206679,
2040,206681,14.277440000000002,206681,54,206681,64408,206681,
2087,206687,11.81728,206687,59,206687,64408,206681,
2099,206691,14.73872,206691,54,206691,64442,206690,
2083,206695,15.2,206695,56,206695,64423,206696,
2070,206697,12.20168,206697,57,206697,64423,206696,
2069,206705,13.43176,206705,56,206705,64462,206699,
2089,206709,15.276880000000002,206709,57,206709,64482,206709,
2095,206711,12.662960000000002,206711,56,206711,64482,206709,
2016,206721,12.047920000000001,206721,56,206721,64492,206719,
2062,206729,13.354880000000001,206729,59,206729,64493,206729,
2051,206739,10.2028,206739,58,206739,64510,206739,
2081,206747,13.43176,206747,56,206747,64544,206747,
2100,206749,13.81616,206749,56,206749,64535,206749,
2106,206751,14.354320000000001,206751,58,206751,64535,206749,
2084,206755,15.584400000000002,206755,56,206755,64535,206749,
2072,206775,14.20056,206775,57,206775,64498,206769,
2067,206777,15.276880000000002,206777,53,206777,64503,206777,
2074,206779,14.12368,206779,57,206779,64476,206779,
2141,206791,15.2,206791,54,206791,64467,206789,
2083,206799,12.047920000000001,206799,53,206799,64475,206799,
2141,206805,14.661840000000002,206805,53,206805,64475,206799,
2192,206809,15.12312,206809,53,206809,64500,206809,
2151,206817,14.046800000000001,206817,53,206817,64491,206817,
2129,206819,16.66072,206819,52,206819,64502,206819,
2097,206835,14.277440000000002,206835,57,206835,64495,206829,
2083,206837,14.8156,206837,53,206837,64484,206837,
2070,206839,16.7376,206839,53,206839,64493,206839,
2045,206849,14.73872,206849,54,206849,64507,206849,
2029,206895,15.81504,206895,52,206895,64499,206892,
2012,206897,16.583840000000002,206897,52,206897,64597,206897,
1996,206899,15.353760000000001,206899,54,206899,64597,206897,
1997,206901,14.20056,206901,52,206901,64597,206902,
2056,206907,17.198880000000003,206907,52,206907,64597,206902,
2073,206909,15.968800000000002,206909,57,206909,64604,206909,
2006,206937,16.81448,206937,53,206937,64631,206932,
2139,206947,15.81504,206947,53,206947,64662,206947,
2226,206949,19.12088,206949,52,206949,64662,206947,
3006,206969,17.35264,206969,53,206969,64600,206969,
1992,206977,19.428400000000003,206977,51,206977,64596,206978,
1595,206979,15.046240000000001,206979,52,206979,64596,206978,
1212,206991,18.198320000000002,206991,52,206991,64617,206992,
2086,207011,16.12256,207011,52,207011,64670,207012,
2048,207021,17.890800000000002,207021,51,207021,64684,207022,
2080,207029,17.66016,207029,52,207029,64624,207030,
2085,207031,19.50528,207031,50,207031,64687,207032,
2067,207041,20.043440000000004,207041,51,207041,64650,207042,
2075,207061,18.2752,207061,52,207061,64669,207062,
2154,207071,17.42952,207071,51,207071,64683,207072,
2129,207087,20.658480000000004,207087,52,207087,64721,207088,
2126,207089,18.505840000000003,207089,54,207089,64706,207090,
2108,207099,16.50696,207099,53,207099,64703,207100,
2109,207101,21.273519999999998,207101,53,207101,64703,207100,
2141,207111,18.96712,207111,54,207111,64661,207110,
2117,207116,20.966,207116,52,207116,64661,207110,
2117,207117,18.04456,207117,54,207117,64735,207118,
2121,207119,20.658480000000004,207119,53,207119,64665,207120,
2129,207121,19.274639999999998,207121,57,207121,64665,207120,
2224,207129,21.7348,207129,52,207129,64676,207130,
2222,207131,16.12256,207131,54,207131,64676,207130,
2160,207136,21.042880000000004,207136,52,207136,64676,207130,
2158,207141,20.197200000000002,207141,52,207141,64678,207140,
2233,207146,19.582160000000002,207146,52,207146,64678,207140,
2226,207156,18.813360000000003,207156,53,207156,64696,207150,
2220,207157,22.042320000000004,207157,52,207157,64663,207158,
2253,207167,20.274079999999998,207167,52,207167,64642,207168,
2170,207179,22.657360000000004,207179,50,207179,64607,207180,
2168,207181,20.50472,207181,52,207181,64607,207180,
2167,207186,22.96488,207186,52,207186,64607,207180,
2150,207191,18.73648,207191,51,207191,64498,207190,
2107,207196,19.96656,207196,53,207196,64498,207190,
2092,207197,20.812240000000003,207197,51,207197,64498,207190,
1897,207219,19.50528,207219,51,207219,63812,207219,
1880,207221,22.811120000000003,207221,50,207221,63812,207219,
1886,207225,22.96488,207225,51,207225,63812,207219,
1889,207227,21.427280000000003,207227,52,207227,63746,207227,
1818,207235,23.50304,207235,51,207235,63731,207229,
1803,207237,18.198320000000002,207237,51,207237,63667,207237,
1802,207239,22.96488,207239,50,207239,63625,207239,
1876,207245,21.273519999999998,207245,50,207245,63625,207239,
1902,207247,21.88856,207247,50,207247,63589,207247,
1914,207249,22.657360000000004,207249,51,207249,63552,207249,
1854,207257,23.195520000000002,207257,49,207257,63591,207257,
1852,207261,21.58104,207261,50,207261,63565,207259,
1958,207269,19.428400000000003,207269,51,207269,63586,207269,
1958,207277,22.042320000000004,207277,50,207277,63580,207277,
2040,207291,21.273519999999998,207291,52,207291,63669,207289,
2061,207305,22.96488,207305,50,207305,63712,207299,
2072,207311,21.273519999999998,207311,50,207311,63744,207309,
2012,207319,22.96488,207319,50,207319,63804,207319,
2022,207321,24.041200000000003,207321,50,207321,63804,207319,
2089,207331,24.73312,207331,49,207331,63893,207332,
2077,207335,23.11864,207335,49,207335,63893,207332,
2076,207337,23.810560000000002,207337,50,207337,63893,207332,
2066,207351,22.887999999999998,207351,50,207351,63975,207352,
2051,207355,23.195520000000002,207355,52,207355,63975,207352,
2043,207357,21.811680000000003,207357,49,207357,63975,207352,
2092,207365,23.96432,207365,52,207365,64008,207362,
2116,207369,24.57936,207369,50,207369,64136,207367,
2116,207371,23.96432,207371,50,207371,64146,207372,
2097,207387,24.34872,207387,51,207387,64163,207386,
2105,207391,26.040080000000003,207391,50,207391,64243,207392,
2020,207401,25.655680000000004,207401,50,207401,64298,207402,
2069,207407,21.042880000000004,207407,51,207407,64298,207402,
2083,207409,25.11752,207409,49,207409,64332,207409,
2085,207411,24.425600000000003,207411,51,207411,64339,207412,
2096,207427,25.655680000000004,207427,49,207427,64390,207427,
2097,207431,24.34872,207431,50,207431,64326,207432,
2059,207441,24.96376,207441,50,207441,64393,207441,
2108,207447,24.656240000000004,207447,50,207447,64393,207441,
2091,207451,26.424480000000003,207451,51,207451,64423,207451,
2017,207457,25.11752,207457,50,207457,64423,207451,
2017,207459,26.11696,207459,51,207459,64418,207459,
2030,207461,23.96432,207461,52,207461,64432,207461,
2093,207467,24.041200000000003,207467,50,207467,64432,207461,
2106,207469,27.1164,207469,50,207469,64441,207469,
2086,207489,26.11696,207489,50,207489,64449,207489,
2099,207491,26.19384,207491,51,207491,64411,207491,
2122,207517,25.34816,207517,48,207517,64421,207515,
2124,207521,26.11696,207521,49,207521,64371,207522,
2158,207525,25.5788,207525,50,207525,64371,207522,
2192,207531,24.11808,207531,49,207531,64377,207532,
2134,207537,26.11696,207537,49,207537,64358,207537,
2123,207539,26.50136,207539,49,207539,64319,207540,
2067,207556,26.11696,207556,50,207556,64355,207550,
2033,207561,28.34648,207561,49,207561,64365,207560,
2057,207566,27.1164,207566,49,207566,64365,207560,
2062,207567,26.424480000000003,207567,52,207567,64393,207568,
2057,207569,26.3476,207569,50,207569,64402,207570,
1940,207577,23.34928,207577,51,207577,64405,207578,
1925,207581,26.270720000000004,207581,50,207581,64428,207580,
1985,207586,26.424480000000003,207586,50,207586,64428,207580,
2014,207587,26.57824,207587,50,207587,64427,207588,
2036,207589,26.96264,207589,50,207589,64454,207590,
1981,207619,27.039520000000003,207619,50,207619,64406,207620,
2045,207641,25.425040000000003,207641,51,207641,64450,207640,
2078,207646,27.808320000000002,207646,50,207646,64450,207640,
2084,207647,29.57656,207647,49,207647,64486,207648,
2083,207651,27.19328,207651,50,207651,64474,207650,
2051,207659,28.500240000000005,207659,50,207659,64500,207660,
2434,207667,29.8072,207667,47,207667,64475,207668,
2565,207669,26.424480000000003,207669,48,207669,64518,207670,
2899,207676,28.11584,207676,48,207676,64518,207670,
3014,207681,27.654560000000004,207681,49,207681,64516,207680,
2870,207686,30.72976,207686,49,207686,64516,207680,
2695,207687,26.732,207687,49,207687,64512,207688,
2062,207691,28.73088,207691,50,207691,64539,207690,
845,207701,26.50136,207701,48,207701,64570,207700,
1222,207706,28.807760000000002,207706,50,207706,64570,207700,
1406,207707,28.96152,207707,49,207707,64570,207700,
1590,207709,28.807760000000002,207709,50,207709,64561,207709,
2105,207729,28.19272,207729,50,207729,64519,207729,
2020,207739,28.96152,207739,49,207739,64516,207739,
2120,207747,27.73144,207747,50,207747,64549,207747,
2138,207751,28.038960000000003,207751,50,207751,64549,207749,
2051,207759,28.269600000000004,207759,51,207759,64570,207759,
2084,207781,32.19048,207781,50,207781,64583,207779,
2128,207785,32.113600000000005,207785,50,207785,64583,207779,
2100,207799,32.34424,207799,50,207799,64597,207799,
2148,207811,28.500240000000005,207811,51,207811,64584,207812,
2134,207815,29.884080000000004,207815,51,207815,64584,207812,
2125,207821,31.19104,207821,51,207821,64582,207822,
2156,207825,29.038400000000003,207825,52,207825,64582,207822,
2170,207827,32.72864,207827,52,207827,64582,207822,
2173,207831,32.80552,207831,52,207831,64539,207832,
2142,207835,30.576,207835,53,207835,64539,207832,
2131,207837,31.267920000000004,207837,52,207837,64636,207837,
2208,207855,30.9604,207855,53,207855,64581,207856,
2244,207867,31.498560000000005,207867,52,207867,64607,207862,
2266,207871,32.19048,207871,51,207871,64632,207872,
2218,207875,29.11528,207875,53,207875,64632,207872,
2194,207877,34.0356,207877,51,207877,64634,207877,
2232,207891,34.57376,207891,50,207891,64544,207891,
2174,207897,32.42112,207897,52,207897,64544,207891,
2133,207901,32.498000000000005,207901,50,207901,64466,207901,
2133,207909,34.8044,207909,51,207909,64377,207909,
2130,207911,32.03672,207911,51,207911,64256,207911,
1969,207921,30.72976,207921,50,207921,63949,207921,
1971,207931,32.498000000000005,207931,50,207931,63783,207931,
1899,207937,33.95872,207937,51,207937,63783,207931,
1873,207949,33.6512,207949,50,207949,63619,207949,
1866,207951,32.34424,207951,52,207951,63576,207951,
1840,207957,30.9604,207957,51,207957,63576,207951,
1852,207961,33.497440000000005,207961,52,207961,63529,207961,
1934,207971,30.268480000000004,207971,51,207971,63483,207971,
1920,207977,34.95816,207977,50,207977,63483,207971,
1941,207981,34.496880000000004,207981,51,207981,63489,207981,
1989,207999,34.26624,207999,51,207999,63502,207999,
2018,208001,35.111920000000005,208001,51,208001,63521,208001,
2076,208009,35.80384,208009,51,208009,63526,208009,
2066,208011,34.42,208011,50,208011,63556,208011,
1997,208021,31.114160000000005,208021,50,208021,63615,208021,
2065,208037,36.80328,208037,51,208037,63671,208031,
2085,208049,33.2668,208049,49,208049,63784,208049,
2054,208059,34.496880000000004,208059,51,208059,63861,208059,
2068,208061,35.1888,208061,50,208061,63889,208061,
2109,208069,37.495200000000004,208069,51,208069,63929,208069,
2051,208081,33.72808,208081,51,208081,64016,208081,
2117,208089,35.111920000000005,208089,52,208089,64038,208089,
2111,208091,35.1888,208091,51,208091,64096,208091,
2048,208101,38.110240000000005,208101,51,208101,64163,208101,
2093,208111,34.34312,208111,53,208111,64218,208110,
2044,208115,38.340880000000006,208115,51,208115,64218,208110,
2029,208117,33.03616,208117,51,208117,64205,208118,
2027,208119,38.494640000000004,208119,51,208119,64225,208120,
2077,208137,38.110240000000005,208137,52,208137,64283,208138,
2075,208139,36.41888,208139,52,208139,64288,208140,
2030,208159,37.8796,208159,51,208159,64292,208159,
2037,208161,36.80328,208161,52,208161,64292,208159,
2121,208171,37.18768,208171,52,208171,64350,208169,
2085,208175,35.41944,208175,53,208175,64350,208169,
2042,208181,35.111920000000005,208181,51,208181,64362,208179,
2065,208185,35.496320000000004,208185,53,208185,64362,208179,
2085,208197,39.57096,208197,53,208197,64317,208197,
2102,208201,39.26344,208201,51,208201,64353,208199,
2128,208205,38.340880000000006,208205,52,208205,64353,208199,
2136,208207,36.18824,208207,52,208207,64322,208207,
2086,208217,34.65064,208217,52,208217,64311,208217,
2102,208221,38.110240000000005,208221,51,208221,64283,208219,
2142,208249,34.65064,208249,52,208249,64269,208249,
2059,208261,39.64784,208261,51,208261,64268,208259,
2077,208271,37.57208,208271,52,208271,64275,208269,
2017,208275,41.03168,208275,50,208275,64275,208269,
1992,208277,37.64896,208277,50,208277,64265,208277,
1974,208279,41.18544,208279,50,208279,64273,208279,
2014,208289,38.41776,208289,49,208289,64325,208287,
2008,208291,38.6484,208291,50,208291,64284,208292,
1982,208299,36.95704,208299,52,208299,64347,208299,
2043,208305,38.87904,208305,51,208305,64312,208306,
2076,208311,41.64672,208311,51,208311,64267,208312,
2057,208315,40.41664,208315,52,208315,64267,208312,
2040,208317,39.26344,208317,51,208317,64267,208312,
2037,208319,41.18544,208319,51,208319,64381,208319,
2074,208331,37.8796,208331,53,208331,64360,208332,
2039,208337,39.57096,208337,52,208337,64410,208337,
2048,208339,40.493520000000004,208339,52,208339,64410,208337,
2059,208341,40.03224,208341,52,208341,64418,208342,
2032,208357,39.4172,208357,53,208357,64383,208351,
2058,208361,42.56928,208361,51,208361,64404,208361,
2242,208367,40.80104,208367,53,208367,64404,208361,
2433,208371,40.80104,208371,52,208371,64427,208371,
2760,208377,37.95648,208377,53,208377,64427,208371,
2891,208381,39.87848,208381,52,208381,64456,208381,
2712,208389,39.64784,208389,53,208389,64462,208389,
2509,208391,39.340320000000006,208391,52,208391,64470,208391,
1089,208401,41.108560000000004,208401,51,208401,64494,208401,
1498,208411,43.79936,208411,52,208411,64501,208411,
1812,208417,41.87736,208417,52,208417,64501,208411,
2086,208427,39.18656,208427,52,208427,64516,208421,
2074,208441,40.493520000000004,208441,52,208441,64509,208441,
2115,208447,43.87624,208447,51,208447,64509,208441,
2126,208449,42.56928,208449,52,208449,64542,208449,
2155,208471,41.41608,208471,52,208471,64525,208471,
2130,208487,41.80048,208487,52,208487,64499,208481,
2141,208489,43.87624,208489,53,208489,64492,208489,
2138,208491,41.954240000000006,208491,52,208491,64493,208491,
2083,208497,43.49184,208497,53,208497,64493,208491,
2077,208499,43.03056,208499,53,208499,64516,208499,
2102,208515,44.106880000000004,208515,53,208515,64575,208515,
2085,208517,43.18432,208517,54,208517,64575,208515,
2174,208531,43.18432,208531,53,208531,64587,208530,
2087,208536,42.953680000000006,208536,54,208536,64587,208530,
2072,208539,43.107440000000004,208539,56,208539,64608,208540,
2208,208547,45.721360000000004,208547,56,208547,64612,208548,
2220,208549,44.337520000000005,208549,57,208549,64578,208550,
2160,208606,43.338080000000005,208606,52,208606,64485,208600,
2165,208609,43.41496,208609,52,208609,64336,208610,
1998,208627,42.26176,208627,51,208627,63850,208628,
1988,208629,47.79712,208629,51,208629,63776,208630,
1965,208631,44.49128,208631,52,208631,63776,208630,
1917,208636,44.337520000000005,208636,54,208636,63776,208630,
1892,208646,44.03,208646,54,208646,63650,208640,
1906,208651,47.4896,208651,52,208651,63549,208650,
1869,208656,44.721920000000004,208656,52,208656,63549,208650,
1859,208657,45.79824,208657,54,208657,63549,208650,
1848,208659,43.41496,208659,52,208659,63453,208659,
1897,208671,46.567040000000006,208671,53,208671,63397,208669,
1884,208675,47.79712,208675,53,208675,63397,208669,
1886,208677,42.723040000000005,208677,53,208677,63378,208677,
1897,208679,48.950320000000005,208679,53,208679,63364,208679,
1986,208701,46.25952,208701,53,208701,63404,208699,
2057,208709,44.64504,208709,53,208709,63470,208709,
2006,208719,48.02776,208719,53,208719,63528,208719,
2020,208721,45.49072,208721,54,208721,63528,208719,
2064,208725,49.4116,208725,53,208725,63528,208719,
2079,208727,44.87568,208727,52,208727,63522,208727,
2070,208731,44.03,208731,56,208731,63559,208729,
2058,208741,46.720800000000004,208741,53,208741,63629,208739,
2091,208745,44.337520000000005,208745,53,208745,63629,208739,
2101,208747,49.719120000000004,208747,53,208747,63655,208747,
2045,208755,47.566480000000006,208755,53,208755,63713,208752,
2112,208769,49.87288,208769,53,208769,63856,208767,
2063,208779,50.64168,208779,53,208779,63918,208779,
2092,208787,47.874,208787,53,208787,63854,208786,
2097,208789,48.79656,208789,53,208789,63953,208790,
2053,208811,51.3336,208811,53,208811,64103,208812,
2033,208818,49.25784,208818,56,208818,64103,208812,
2038,208819,48.41216,208819,54,208819,64132,208819,
2053,208841,48.41216,208841,52,208841,64252,208841,
2057,208858,48.950320000000005,208858,53,208858,64293,208851,
2057,208859,48.950320000000005,208859,53,208859,64291,208859,
2105,208871,49.796,208871,55,208871,64315,208871,
2081,208881,45.952000000000005,208881,55,208881,64283,208881,
2130,208888,51.717999999999996,208888,53,208888,64283,208881,
2093,208901,52.71744,208901,54,208901,64251,208901,
2153,208908,50.9492,208908,54,208908,64251,208901,
2160,208909,51.64112000000001,208909,54,208909,64309,208909,
2129,208919,52.102399999999996,208919,54,208919,64277,208919,
2128,208921,51.564240000000005,208921,54,208921,64236,208921,
2150,208928,49.10408,208928,53,208928,64236,208921,
2154,208929,53.48624,208929,53,208929,64226,208929,
2079,208941,52.794320000000006,208941,53,208941,64214,208941,
1932,208961,52.333040000000004,208961,53,208961,64205,208961,
2019,208971,51.64112000000001,208971,53,208971,64193,208971,
2024,208981,49.719120000000004,208981,54,208981,64202,208981,
2080,208989,52.25616,208989,56,208989,64238,208989,
2073,208991,51.79488,208991,53,208991,64227,208991,
2017,209001,55.25448000000001,209001,53,209001,64256,209001,
2065,209009,53.25560000000001,209009,53,209009,64286,209010,
2035,209017,49.87288,209017,54,209017,64310,209017,
2090,209027,54.56256,209027,54,209027,64319,209027,
2049,209041,53.947520000000004,209041,54,209041,64377,209040,
2258,209047,53.87064,209047,53,209047,64364,209047,
2351,209049,52.64056,209049,53,209049,64401,209049,
2444,209051,55.562000000000005,209051,53,209051,64401,209049,
2569,209071,49.796,209071,54,209071,64399,209070,
1846,209097,52.71744,209097,56,209097,64411,209097,
1907,209099,52.87120000000001,209099,53,209099,64409,209100,
2099,209109,54.02440000000001,209109,54,209109,64452,209110,
2107,209111,54.71632,209111,54,209111,64452,209110,
2114,209131,54.40880000000001,209131,53,209131,64469,209130,
2096,209135,54.331920000000004,209135,53,209135,64469,209130,
2107,209155,57.8684,209155,53,209155,64498,209150,
2100,209157,51.64112000000001,209157,53,209157,64532,209157,
2096,209159,57.945280000000004,209159,53,209159,64511,209160,
2154,209167,56.63832,209167,54,209167,64517,209167,
2158,209169,54.87008000000001,209169,54,209169,64514,209170,
2148,209171,53.02496,209171,54,209171,64514,209170,
2087,209179,56.48456000000001,209179,54,209179,64520,209180,
2143,209187,57.79152,209187,56,209187,64506,209187,
2109,209195,56.56144,209195,55,209195,64527,209190,
2100,209197,56.63832,209197,56,209197,64531,209198,
2099,209199,57.8684,209199,55,209199,64531,209198,
2161,209215,57.0996,209215,59,209215,64532,209216,
2157,209217,56.17704,209217,56,209217,64532,209216,
2148,209219,56.63832,209219,57,209219,64502,209219,
2213,209229,56.63832,209229,59,209229,64594,209227,
2230,209247,54.56256,209247,56,209247,64564,209246,
2227,209251,57.63776000000001,209251,56,209251,64505,209252,
2245,209261,54.02440000000001,209261,56,209261,64509,209262,
2249,209265,57.02272,209265,56,209265,64509,209262,
2253,209267,58.71408,209267,55,209267,64509,209262,
2248,209269,57.176480000000005,209269,57,209269,64588,209269,
2196,209281,59.71352000000001,209281,56,209281,64473,209282,
2187,209285,59.7904,209285,56,209285,64473,209282,
2176,209287,57.63776000000001,209287,55,209287,64473,209282,
2161,209289,58.56032,209289,56,209289,64413,209289,
1990,209301,58.94472,209301,56,209301,63914,209302,
1963,209311,56.94584,209311,54,209311,63702,209311,
1868,209331,62.55808,209331,54,209331,63463,209331,
1869,209341,58.56032,209341,54,209341,63409,209341,
1892,209351,56.10016000000001,209351,55,209351,63386,209351,
1899,209357,59.32912000000001,209357,54,209357,63386,209351,
1921,209361,61.02048,209361,56,209361,63382,209361,
1977,209379,59.175360000000005,209379,53,209379,63434,209379,
2064,209389,60.405440000000006,209389,53,209389,63460,209389,
2058,209391,61.40488,209391,54,209391,63465,209391,
1976,209397,60.1748,209397,56,209397,63465,209391,
1976,209399,61.40488,209399,54,209399,63487,209399,
2089,209411,61.02048,209411,53,209411,63558,209411,
2040,209419,57.79152,209419,56,209419,63547,209419,
2084,209431,59.71352000000001,209431,56,209431,63639,209431,
2117,209447,63.71128000000001,209447,53,209447,63689,209441,
2064,209461,62.63496,209461,54,209461,63831,209461,
2068,209471,64.0188,209471,54,209471,63900,209471,
2053,209477,62.48120000000001,209477,54,209477,63900,209471,
2066,209481,63.557520000000004,209481,54,209481,63973,209481,
2061,209501,64.7876,209501,54,209501,64093,209501,
2081,209511,65.63328000000001,209511,54,209511,64169,209512,
2038,209521,64.48008000000002,209521,56,209521,64206,209521,
2112,209531,64.09568000000002,209531,54,209531,64193,209529,
2058,209535,64.86448000000001,209535,56,209535,64193,209529,
2035,209537,64.55696,209537,55,209537,64223,209538,
2105,209567,62.86560000000001,209567,54,209567,64256,209567,
2073,209575,65.78703999999999,209575,56,209575,64225,209569,
2057,209585,65.32576,209585,54,209585,64287,209579,
2090,209591,65.71016,209591,53,209591,64299,209589,
2056,209595,63.40376,209595,52,209595,64299,209589,
2101,209607,65.40263999999999,209607,54,209607,64215,209607,
2036,209615,67.094,209615,54,209615,64202,209609,
2065,209621,63.557520000000004,209621,53,209621,64171,209619,
2112,209625,65.9408,209625,56,209625,64171,209619,
2092,209645,67.094,209645,54,209645,64169,209639,
2141,209649,65.40263999999999,209649,54,209649,64175,209649,
2118,209665,66.17143999999999,209665,54,209665,64172,209659,
2169,209671,63.63440000000001,209671,53,209671,64180,209669,
2156,209681,67.24776,209681,53,209681,64215,209679,
2091,209697,68.63159999999999,209697,54,209697,64279,209697,
2104,209709,71.93744000000001,209709,54,209709,64311,209709,
2094,209711,63.25000000000001,209711,56,209711,64311,209709,
2036,209725,65.09512000000001,209725,54,209725,64258,209722,
1952,209741,69.32352,209741,53,209741,64382,209739,
2005,209745,71.78368,209745,54,209745,64335,209746,
2035,209749,70.39984000000001,209749,53,209749,64337,209749,
1992,209757,68.70848000000001,209757,53,209757,64415,209757,
2050,209771,71.16864000000001,209771,53,209771,64398,209771,
2008,209777,68.70848000000001,209777,54,209777,64398,209771,
2019,209779,67.24776,209779,53,209779,64403,209779,
2028,209801,67.01712,209801,53,209801,64474,209801,
2558,209821,72.47560000000001,209821,49,209821,64516,209821,
2344,209841,68.24719999999999,209841,55,209841,64536,209841,
1272,209847,72.62935999999999,209847,53,209847,64536,209841,
862,209851,69.63104000000001,209851,54,209851,64537,209851,
2003,209871,73.24440000000001,209871,54,209871,64546,209871,
2043,209877,71.32240000000002,209877,53,209877,64546,209871,
2065,209881,73.01375999999999,209881,54,209881,64560,209881,
2088,209887,71.09176,209887,53,209887,64560,209881,
2090,209889,74.85888,209889,53,209889,64524,209889,
2061,209899,73.32128,209899,54,209899,64512,209899,
2080,209901,74.16696000000002,209901,54,209901,64515,209901,
2150,209909,69.63104000000001,209909,53,209909,64522,209909,
2050,209919,72.16808,209919,53,209919,64538,209919,
2073,209921,72.47560000000001,209921,54,209921,64535,209921,
2108,209941,72.78312,209941,53,209941,64569,209941,
2140,209947,77.01151999999999,209947,54,209947,64569,209941,
2083,209957,73.78256000000002,209957,54,209957,64582,209951,
2094,209959,73.85944,209959,54,209959,64583,209959,
2118,209961,72.47560000000001,209961,55,209961,64578,209961,
2164,209967,70.32296,209967,54,209967,64578,209961,
2097,209977,76.01208,209977,56,209977,64594,209971,
2106,209979,73.24440000000001,209979,56,209979,64576,209979,
2186,209991,75.55080000000001,209991,57,209991,64623,209991,
2144,210001,76.93464,210001,57,210001,64634,210000,
2241,210011,76.85776000000001,210011,57,210011,64637,210009,
2224,210021,73.62880000000001,210021,56,210021,64641,210019,
2256,210025,70.24608,210025,58,210025,64641,210019,
2195,210039,73.93632,210039,54,210039,64618,210039,
2205,210041,80.47112000000001,210041,55,210041,64618,210039,
2229,210047,77.31904,210047,56,210047,64651,210047,
2224,210049,76.24271999999999,210049,54,210049,64609,210049,
2104,210061,73.24440000000001,210061,54,210061,64592,210059,
2097,210067,78.16472000000002,210067,53,210067,64467,210067,
1977,210075,76.93464,210075,53,210075,64346,210069,
1955,210079,73.16752,210079,55,210079,63964,210079,
1964,210081,80.9324,210081,53,210081,63964,210079,
1902,210091,75.85831999999999,210091,54,210091,63681,210089,
1813,210095,80.9324,210095,54,210095,63681,210089,
1797,210097,75.24328,210097,53,210097,63617,210097,
1803,210099,82.54688000000002,210099,54,210099,63543,210099,
1897,210107,80.70176000000001,210107,53,210107,63507,210107,
1854,210115,75.16640000000001,210115,54,210115,63464,210109,
1848,210117,81.85496,210117,53,210117,63442,210117,
1852,210119,73.85944,210119,53,210119,63431,210119,
1871,210121,80.548,210121,53,210121,63431,210119,
1920,210137,75.47391999999999,210137,54,210137,63389,210137,
1983,210145,78.85664,210145,55,210145,63425,210139,
2006,210149,80.39424,210149,53,210149,63440,210149,
1977,210155,74.78200000000001,210155,54,210155,63440,210149,
2001,210161,81.00928000000002,210161,53,210161,63482,210159,
2063,210165,80.08672000000001,210165,53,210165,63482,210159,
2012,210175,84.0076,210175,52,210175,63526,210172,
2095,210185,79.24104,210185,52,210185,63580,210186,
2107,210187,79.24104,210187,52,210187,63580,210186,
2036,210197,81.77808000000002,210197,53,210197,63696,210197,
2074,210211,83.16192000000001,210211,53,210211,63767,210209,
2045,210219,81.00928000000002,210219,53,210219,63747,210219,
2107,210225,81.54744,210225,53,210225,63803,210222,
2108,210227,80.31736000000001,210227,52,210227,63803,210222,
2102,210229,83.46943999999999,210229,53,210229,63867,210229,
2082,210231,76.31960000000001,210231,53,210231,63883,210232,
2092,210247,84.08448000000001,210247,52,210247,63948,210242,
2104,210249,78.08784,210249,53,210249,63951,210249,
2051,210261,80.70176000000001,210261,52,210261,64048,210261,
2097,210271,77.31904,210271,53,210271,64120,210271,
2052,210281,83.77696,210281,53,210281,64175,210281,
2089,210289,77.8572,210289,53,210289,64196,210289,
2041,210299,82.00872000000001,210299,52,210299,64241,210299,
2058,210301,83.2388,210301,53,210301,64258,210301,
2038,210317,83.93072000000001,210317,53,210317,64291,210311,
2109,210331,83.31568000000001,210331,53,210331,64309,210331,
2052,210341,82.31624,210341,54,210341,64334,210341,
2142,210347,79.16416000000001,210347,54,210347,64334,210341,
2088,210351,82.70063999999999,210351,54,210351,64357,210351,
2106,210369,81.7012,210369,53,210369,64328,210369,
2093,210371,85.00704000000002,210371,53,210371,64324,210371,
2049,210377,84.7764,210377,54,210377,64324,210371,
2090,210381,85.69896,210381,54,210381,64316,210381,
2128,210387,82.70063999999999,210387,53,210387,64316,210381,
2121,210389,86.54464000000002,210389,54,210389,64343,210389,
2078,210401,83.31568000000001,210401,53,210401,64336,210401,
2089,210409,86.314,210409,54,210409,64340,210409,
2065,210411,86.92904000000001,210411,52,210411,64345,210411,
2089,210421,88.92792,210421,54,210421,64351,210421,
2106,210439,85.46832,210439,53,210439,64350,210439,
2200,210449,87.08279999999999,210449,56,210449,64349,210449,
2144,210459,84.23823999999999,210459,54,210459,64336,210459,
2155,210461,88.77416,210461,54,210461,64395,210461,
2099,210471,86.69839999999999,210471,53,210471,64406,210470,
2045,210475,87.39032,210475,53,210475,64406,210470,
2030,210477,86.23712,210477,53,210477,64377,210478,
2037,210479,88.46664000000001,210479,53,210479,64384,210480,
2105,210486,86.69839999999999,210486,54,210486,64384,210480,
1985,210499,85.46832,210499,52,210499,64423,210500,
2003,210511,87.08279999999999,210511,52,210511,64466,210512,
2014,210521,83.54632000000001,210521,52,210521,64485,210520,
2036,210525,84.0076,210525,54,210525,64485,210520,
2012,210539,84.392,210539,52,210539,64478,210540,
2090,210545,89.77360000000002,210545,53,210545,64478,210540,
2094,210547,88.77416,210547,53,210547,64481,210547,
2078,210549,87.23656,210549,53,210549,64492,210550,
2066,210561,83.77696,210561,53,210561,64516,210560,
2078,210569,88.62040000000002,210569,54,210569,64512,210570,
2035,210579,84.23823999999999,210579,53,210579,64528,210580,
2060,210581,92.31064,210581,53,210581,64528,210580,
2268,210589,89.92736,210589,53,210589,64550,210590,
2632,210597,87.23656,210597,53,210597,64536,210597,
2750,210599,92.84880000000001,210599,54,210599,64559,210599,
1539,210619,85.69896,210619,53,210619,64579,210619,
1570,210635,89.15856,210635,52,210635,64580,210629,
1687,210637,86.08336,210637,52,210637,64582,210637,
2093,210651,90.84992,210651,52,210651,64583,210652,
2059,210655,87.85159999999999,210655,53,210655,64583,210652,
2054,210661,92.61816000000002,210661,53,210661,64554,210662,
2079,210681,88.62040000000002,210681,53,210681,64672,210679,
2112,210685,93.00256000000002,210685,54,210685,64606,210686,
2126,210687,91.46495999999999,210687,53,210687,64606,210686,
2118,210695,89.23544000000001,210695,53,210695,64638,210692,
2114,210697,94.84768,210697,54,210697,64680,210697,
2061,210716,95.30896000000001,210716,53,210716,64632,210712,
2112,210721,85.23768000000001,210721,55,210721,64710,210722,
2132,210731,91.08055999999999,210731,54,210731,64673,210732,
2109,210739,87.08279999999999,210739,54,210739,64650,210740,
2130,210759,96.07776000000001,210759,57,210759,64734,210760,
2161,210761,89.31232,210761,56,210761,64641,210762,
2160,210771,93.69448,210771,57,210771,64660,210772,
2253,210791,95.15520000000001,210791,58,210791,64702,210792,
2208,210801,93.92511999999999,210801,60,210801,64725,210802,
2234,210809,93.23320000000001,210809,62,210809,64670,210810,
2210,210821,97.15408,210821,58,210821,64718,210822,
2166,210829,96.15464,210829,57,210829,64696,210830,
2086,210839,101.84376,210839,56,210839,64718,210840,
1915,210861,100.07552000000001,210861,56,210861,64686,210861,
1930,210866,95.84712000000002,210866,55,210866,64686,210861,
1812,210877,93.84824,210877,56,210877,64643,210878,
1812,210879,101.69,210879,56,210879,64520,210880,
1965,210906,97.15408,210906,54,210906,64001,210900,
1949,210911,98.84544,210911,54,210911,63940,210910,
1975,210921,96.76968,210921,54,210921,63882,210920,
2021,210931,98.46104,210931,52,210931,63836,210930,
2026,210941,101.61312000000001,210941,52,210941,63811,210940,
2090,210947,100.61368000000002,210947,52,210947,63753,210948,
2019,210957,96.15464,210957,52,210957,63793,210958,
2092,210971,99.84488000000002,210971,52,210971,63828,210970,
2012,210976,98.76856000000001,210976,52,210976,63828,210970,
1999,210977,103.91952,210977,52,210977,63828,210970,
2002,210979,95.15520000000001,210979,51,210979,63854,210979,
2117,210987,100.69056,210987,52,210987,63860,210987,
2126,210989,101.99752000000001,210989,51,210989,63860,210989,
2107,210991,98.53792000000001,210991,50,210991,63860,210989,
2107,211005,99.768,211005,53,211005,63967,210999,
2118,211027,102.0744,211027,52,211027,63992,211027,
2053,211059,97.30784,211059,54,211059,64096,211059,
2121,211065,102.76632000000001,211065,52,211065,64096,211059,
2073,211071,99.768,211071,52,211071,64163,211069,
2019,211077,100.07552000000001,211077,50,211077,64134,211077,
2092,211091,102.38192000000001,211091,54,211091,64211,211089,
2029,211095,100.45992000000001,211095,53,211095,64211,211089,
2048,211101,106.22592,211101,53,211101,64221,211099,
2096,211105,103.2276,211105,52,211105,64221,211099,
2116,211107,104.15016,211107,53,211107,64228,211107,
2096,211111,103.07384000000002,211111,52,211111,64238,211112,
2045,211115,99.84488000000002,211115,53,211115,64238,211112,
2024,211117,100.38304,211117,53,211117,64308,211117,
2019,211119,105.22648000000001,211119,53,211119,64308,211117,
2114,211131,104.7652,211131,52,211131,64334,211129,
2027,211137,101.53623999999999,211137,52,211137,64285,211136,
2109,211165,97.61536000000001,211165,53,211165,64345,211166,
2116,211169,104.30392,211169,53,211169,64340,211169,
2121,211179,101.92063999999999,211179,53,211179,64415,211177,
2144,211181,104.84208000000001,211181,52,211181,64409,211182,
2124,211191,104.7652,211191,53,211191,64387,211192,
2086,211199,104.30392,211199,53,211199,64418,211198,
2114,211209,103.30448000000001,211209,53,211209,64439,211209,
2101,211211,104.61144000000002,211211,53,211211,64469,211211,
2078,211221,104.84208000000001,211221,53,211221,64486,211221,
2081,211228,104.91896,211228,53,211228,64486,211221,
2060,211229,104.99584000000002,211229,53,211229,64483,211229,
1993,211241,103.15072,211241,52,211241,64468,211241,
2028,211248,104.84208000000001,211248,53,211248,64468,211241,
2011,211249,104.7652,211249,54,211249,64518,211249,
2034,211261,106.91784000000001,211261,54,211261,64446,211261,
2078,211268,99.07608000000002,211268,54,211268,64446,211261,
2038,211271,106.91784000000001,211271,54,211271,64461,211271,
2044,211281,103.91952,211281,53,211281,64482,211281,
2080,211288,108.91672,211288,54,211288,64482,211281,
2057,211291,105.07272,211291,54,211291,64499,211291,
2029,211298,104.84208000000001,211298,54,211298,64499,211291,
2040,211299,105.38024000000001,211299,54,211299,64484,211299,
2065,211311,101.07496,211311,55,211311,64535,211311,
2134,211321,105.07272,211321,54,211321,64540,211321,
2556,211329,101.07496,211329,53,211329,64540,211329,
2907,211339,108.60920000000002,211339,55,211339,64555,211339,
1985,211351,101.07496,211351,54,211351,64552,211351,
984,211359,105.99528000000001,211359,54,211359,64562,211359,
1004,211361,108.60920000000002,211361,53,211361,64573,211361,
1721,211371,110.30056000000002,211371,53,211371,64599,211370,
1977,211379,106.76408,211379,54,211379,64601,211380,
2062,211397,108.14792,211397,54,211397,64605,211397,
2108,211405,107.99416,211405,53,211405,64629,211400,
2113,211407,109.30112,211407,54,211407,64607,211407,
2105,211421,108.14792,211421,54,211421,64617,211420,
2130,211425,108.91672,211425,56,211425,64617,211420,
2133,211427,107.68664000000001,211427,54,211427,64625,211427,
2122,211429,111.06936000000002,211429,54,211429,64600,211430,
2106,211431,103.68888000000001,211431,54,211431,64600,211430,
2135,211445,108.68608,211445,54,211445,64586,211440,
2086,211455,112.37631999999999,211455,54,211455,64564,211450,
2112,211461,111.53064,211461,54,211461,64570,211460,
2153,211465,107.22536,211465,54,211465,64570,211460,
2135,211471,107.76352,211471,53,211471,64576,211470,
2116,211475,104.07328000000001,211475,55,211475,64576,211470,
2124,211477,112.29944,211477,54,211477,64564,211477,
2147,211479,111.37688,211479,56,211479,64590,211479,
2140,211491,113.37576000000001,211491,56,211491,64612,211490,
2138,211501,112.76071999999999,211501,56,211501,64618,211500,
2201,211511,109.07048,211511,56,211511,64648,211511,
2254,211527,111.06936000000002,211527,57,211527,64646,211527,
2205,211537,107.45600000000002,211537,57,211537,64651,211537,
2222,211541,107.07160000000002,211541,59,211541,64613,211541,
2258,211547,115.29776000000001,211547,58,211547,64665,211547,
2242,211549,111.45376000000002,211549,58,211549,64665,211547,
2145,211557,118.83424,211557,59,211557,64675,211557,
2106,211571,113.06824,211571,59,211571,64622,211571,
2006,211581,108.30168,211581,57,211581,64622,211581,
1936,211591,117.29664,211591,56,211591,64623,211591,
1841,211597,115.37464,211597,56,211597,64668,211597,
1829,211599,110.91560000000001,211599,56,211599,64668,211597,
1878,211607,114.91336000000001,211607,56,211607,64655,211607,
1880,211609,114.29832000000002,211609,54,211609,64655,211607,
1865,211611,114.60584,211611,55,211611,64631,211611,
1843,211617,113.52952000000002,211617,55,211617,64608,211617,
1854,211619,116.6816,211619,54,211619,64608,211617,
1921,211631,115.144,211631,53,211631,64481,211631,
1888,211637,115.144,211637,53,211637,64402,211637,
1987,211649,117.60416000000001,211649,54,211649,64244,211647,
1984,211651,117.98856,211651,54,211651,64194,211651,
1994,211659,115.75904,211659,53,211659,64167,211657,
2045,211669,113.37576000000001,211669,52,211669,64099,211667,
2084,211687,111.45376000000002,211687,52,211687,64008,211687,
2080,211689,119.7568,211689,51,211689,64008,211687,
2070,211691,115.06711999999999,211691,52,211691,64043,211691,
2045,211697,116.6816,211697,51,211697,64000,211697,
2052,211699,116.60471999999999,211699,53,211699,64000,211697,
2064,211701,117.91167999999999,211701,50,211701,64055,211701,
2011,211719,117.37351999999998,211719,52,211719,64056,211717,
2059,211737,117.98856,211737,51,211737,64071,211732,
2069,211751,121.60192,211751,51,211751,64090,211750,
2041,211756,119.98743999999999,211756,51,211756,64090,211750,
2041,211757,118.29607999999999,211757,51,211757,64140,211758,
2089,211769,119.83367999999999,211769,53,211769,64167,211770,
2061,211771,113.68328,211771,52,211771,64167,211770,
2052,211776,117.91167999999999,211776,52,211776,64167,211770,
2058,211777,119.3724,211777,51,211777,64153,211778,
2097,211787,118.75736,211787,52,211787,64161,211788,
2083,211789,117.91167999999999,211789,52,211789,64210,211790,
2064,211791,120.37183999999999,211791,52,211791,64210,211790,
2062,211839,123.37016,211839,53,211839,64223,211840,
2068,211841,117.29664,211841,54,211841,64223,211840,
2086,211846,119.06487999999999,211846,53,211846,64223,211840,
2034,211851,119.21864,211851,53,211851,64224,211850,
2067,211859,113.83704,211859,54,211859,64223,211860,
2076,211877,119.06487999999999,211877,53,211877,64291,211878,
2110,211881,114.3752,211881,54,211881,64278,211880,
2145,211886,119.67992000000001,211886,54,211886,64278,211880,
2149,211887,121.83256,211887,53,211887,64265,211888,
2148,211889,123.75456,211889,53,211889,64294,211890,
2146,211899,118.75736,211899,53,211899,64298,211900,
2182,211906,120.60247999999999,211906,53,211906,64298,211900,
2189,211907,120.44872000000001,211907,54,211907,64262,211908,
2181,211909,122.37072,211909,52,211909,64295,211910,
2078,211921,118.91112000000001,211921,53,211921,64298,211920,
2108,211926,123.44703999999999,211926,54,211926,64298,211920,
2110,211927,124.67712,211927,52,211927,64287,211928,
2050,211945,126.59912,211945,54,211945,64312,211939,
1940,211955,124.90776,211955,52,211955,64290,211949,
2002,211965,119.7568,211965,52,211965,64335,211959,
2011,211977,124.83088000000001,211977,52,211977,64338,211977,
2026,211979,123.37016,211979,53,211979,64342,211979,
2042,211981,119.7568,211981,52,211981,64342,211979,
2053,211991,116.2972,211991,54,211991,64309,211989,
2028,211995,122.60136,211995,53,211995,64309,211989,
2026,211999,125.67656,211999,54,211999,64297,211999,
2029,212011,127.36792,212011,54,212011,64289,212009,
2768,212049,123.37016,212049,56,212049,64353,212049,
2856,212051,126.44536,212051,54,212051,64353,212049,
2990,212055,128.90552,212055,54,212055,64353,212049,
3013,212057,117.37351999999998,212057,56,212057,64339,212057,
2990,212059,127.90608,212059,56,212059,64352,212059,
1850,212069,122.29383999999999,212069,54,212069,64353,212069,
931,212075,122.832,212075,53,212075,64353,212069,
854,212077,129.67432,212077,53,212077,64352,212077,
1800,212089,125.83032,212089,54,212089,64409,212087,
1886,212091,123.13952,212091,54,212091,64368,212092,
2110,212105,125.52279999999999,212105,54,212105,64349,212106,
2090,212119,124.36959999999999,212119,54,212119,64434,212119,
2149,212125,129.67432,212125,54,212125,64360,212122,
2146,212127,126.13784000000001,212127,56,212127,64438,212127,
2129,212129,127.67544000000001,212129,53,212129,64438,212127,
2092,212139,128.2136,212139,56,212139,64430,212139,
2114,212141,124.60023999999999,212141,54,212141,64430,212139,
2146,212179,125.67656,212179,54,212179,64446,212179,
2115,212191,132.21136,212191,54,212191,64482,212191,
2161,212201,126.75288,212201,56,212201,64505,212201,
2186,212207,126.67599999999999,212207,54,212207,64505,212201,
2172,212209,131.82696,212209,56,212209,64494,212209,
2150,212211,123.2164,212211,57,212211,64511,212211,
2192,212231,132.442,212231,57,212231,64519,212231,
2289,212249,130.9044,212249,58,212249,64540,212249,
2260,212251,129.52056,212251,57,212251,64522,212251,
2228,212261,132.28824,212261,56,212261,64527,212261,
2236,212269,131.13504,212269,54,212269,64525,212269,
2205,212271,131.44256,212271,55,212271,64541,212271,
2157,212277,126.67599999999999,212277,54,212277,64541,212271,
2161,212279,135.82472,212279,53,212279,64515,212279,
2113,212289,132.442,212289,55,212289,64498,212289,
2074,212291,131.90384,212291,53,212291,64513,212291,
1960,212309,132.442,212309,55,212309,64529,212309,
1868,212321,128.67488,212321,54,212321,64552,212321,
1875,212327,134.67152,212327,53,212327,64552,212321,
1865,212329,131.98072,212329,53,212329,64566,212329,
1908,212351,131.21192,212351,52,212351,64586,212351,
2005,212367,135.9016,212367,52,212367,64613,212361,
2004,212369,128.13672,212369,52,212369,64585,212369,
2057,212387,131.21192,212387,53,212387,64548,212388,
2032,212391,128.44424,212391,52,212391,64530,212390,
2013,212396,133.51832,212396,52,212396,64530,212390,
2019,212397,134.7484,212397,51,212397,64491,212398,
2083,212406,128.75176,212406,52,212406,64487,212400,
2089,212407,133.05704,212407,52,212407,64477,212408,
2048,212439,128.05984,212439,52,212439,64504,212439,
2090,212449,136.286,212449,52,212449,64501,212449,
2075,212451,132.90328,212451,52,212451,64501,212449,
2060,212455,133.82584,212455,52,212455,64501,212449,
2102,212469,135.44032,212469,54,212469,64454,212469,
2074,212471,137.59296,212471,52,212471,64454,212469,
2044,212475,133.67208,212475,54,212475,64454,212469,
2083,212481,141.05256,212481,54,212481,64448,212479,
2102,212489,134.28712,212489,53,212489,64455,212489,
2041,212499,133.44144,212499,54,212499,64486,212499,
2051,212519,136.43976,212519,57,212519,64501,212520,
2045,212539,137.0548,212539,54,212539,64511,212540,
2068,212541,137.13168,212541,54,212541,64511,212540,
2096,212546,131.6732,212546,54,212546,64559,212546,
2060,212551,142.66704000000001,212551,54,212551,64529,212550,
2033,212556,136.90104,212556,54,212556,64572,212556,
2058,212559,138.74616,212559,53,212559,64539,212560,
2061,212571,133.9796,212571,54,212571,64538,212570,
2048,212579,138.9768,212579,54,212579,64552,212580,
2116,212601,137.90048,212601,54,212601,64587,212600,
2168,212609,137.28544,212609,54,212609,64595,212610,
2161,212619,133.2108,212619,54,212619,64594,212620,
2179,212621,142.89768,212621,53,212621,64594,212620,
2106,212631,138.36176,212631,55,212631,64587,212630,
2073,212639,142.59016,212639,53,212639,64567,212640,
2097,212641,134.13336,212641,54,212641,64567,212640,
2089,212651,139.59184,212651,53,212651,64567,212650,
2056,212656,135.36344,212656,53,212656,64595,212656,
1960,212679,139.51496,212679,54,212679,64614,212680,
2018,212689,134.05648,212689,53,212689,64635,212690,
2001,212691,143.2052,212691,53,212691,64635,212690,
2052,212711,135.67096,212711,54,212711,64638,212710,
2004,212716,141.6676,212716,53,212716,64672,212716,
2081,212729,139.05368,212729,52,212729,64667,212730,
2070,212741,139.82248,212741,52,212741,64653,212741,
2056,212751,139.97624,212751,53,212751,64740,212751,
2132,212757,147.51048,212757,53,212757,64740,212751,
2241,212759,135.28656,212759,53,212759,64743,212759,
2928,212771,140.66816,212771,54,212771,64687,212771,
3007,212777,138.208,212777,56,212777,64687,212771,
1580,212789,144.66592,212789,54,212789,64728,212789,
1214,212791,145.20408,212791,52,212791,64705,212791,
1006,212799,139.7456,212799,53,212799,64791,212799,
2072,212821,140.97568,212821,54,212821,64786,212821,
2068,212831,145.66536,212831,54,212831,64767,212831,
2059,212837,145.97288,212837,54,212837,64767,212831,
2080,212839,144.89656,212839,54,212839,64744,212839,
2107,212851,136.51664,212851,54,212851,64776,212851,
2126,212869,142.20576,212869,54,212869,64813,212869,
2105,212871,149.27872,212871,54,212871,64790,212871,
2097,212891,144.05088,212891,54,212891,64797,212890,
2086,212896,143.51272,212896,54,212896,64797,212890,
2098,212897,149.04808,212897,54,212897,64793,212898,
2143,212919,149.3556,212919,53,212919,64782,212919,
2189,212925,143.35896,212925,54,212925,64782,212919,
2157,212931,146.28040000000001,212931,55,212931,64857,212929,
2220,212945,150.81632,212945,55,212945,64844,212939,
2208,212955,147.12608,212955,58,212955,64864,212949,
2245,212967,153.04584,212967,56,212967,64800,212967,
2218,212977,149.58624,212977,56,212977,64817,212977,
2223,212979,150.66256,212979,54,212979,64796,212979,
2131,213001,151.73888,213001,54,213001,64838,212999,
2137,213005,148.74056,213005,55,213005,64838,212999,
2125,213007,147.35672,213007,54,213007,64821,213007,
2096,213009,146.6648,213009,54,213009,64824,213009,
2058,213011,155.04472,213011,54,213011,64824,213009,
1974,213021,152.66144,213021,54,213021,64838,213019,
1964,213027,149.97064,213027,53,213027,64832,213027,
1875,213047,152.50768,213047,52,213047,64836,213047,
1837,213051,147.20296,213051,52,213051,64835,213052,
1880,213059,154.81408,213059,52,213059,64887,213057,
1914,213061,142.51328,213061,52,213061,64821,213062,
1921,213071,150.04752,213071,51,213071,64898,213069,
1942,213079,148.12552,213079,51,213079,64863,213079,
2005,213089,151.20072,213089,51,213089,64902,213089,
1985,213095,151.50824,213095,52,213095,64840,213092,
2015,213101,149.66312,213101,52,213101,64886,213102,
2032,213111,152.96896,213111,51,213111,64899,213112,
2029,213117,151.96952,213117,51,213117,64899,213112,
2088,213125,149.97064,213125,53,213125,64913,213122,
2089,213127,147.66424,213127,53,213127,64931,213127,
2075,213129,151.81576,213129,52,213129,64931,213127,
2076,213141,149.27872,213141,52,213141,64894,213141,
2111,213147,149.58624,213147,54,213147,64894,213141,
2044,213157,144.05088,213157,53,213157,64913,213151,
2075,213161,145.896,213161,54,213161,64918,213161,
2065,213171,150.43192,213171,52,213171,64935,213171,
2050,213177,157.19736,213177,54,213177,64935,213171,
2075,213179,145.81912,213179,54,213179,64928,213179,
2040,213191,152.27704,213191,54,213191,64932,213191,
2030,213197,150.1244,213197,54,213197,64932,213191,
2058,213199,156.88984,213199,56,213199,64945,213199,
2048,213211,153.73776,213211,53,213211,64929,213211,
2049,213217,150.20128,213217,54,213217,64929,213211,
2067,213219,151.43136,213219,54,213219,64929,213219,
2096,213231,152.58456,213231,55,213231,64939,213231,
2045,213237,153.89152,213237,54,213237,64939,213231,
2093,213249,148.35616,213249,55,213249,64894,213249,
2064,213261,155.58288,213261,54,213261,64881,213261,
2093,213267,153.9684,213267,53,213267,64881,213261,
2086,213269,156.2748,213269,54,213269,64904,213269,
2103,213279,151.20072,213279,54,213279,64902,213279,
2136,213281,155.19848,213281,54,213281,64905,213281,
2169,213311,157.58176,213311,53,213311,64908,213311,
2138,213329,154.58344,213329,54,213329,64912,213329,
2125,213331,157.73552,213331,54,213331,64942,213331,
2075,213341,152.58456,213341,55,213341,64958,213341,
2064,213349,148.5868,213349,54,213349,64958,213350,
1962,213361,153.73776,213361,54,213361,64929,213360,
2014,213369,162.11768,213369,53,213369,64926,213370,
2012,213377,157.88928,213377,53,213377,64948,213378,
2024,213379,160.27256,213379,54,213379,64918,213380,
2020,213397,154.7372,213397,54,213397,64926,213397,
2044,213399,158.42744,213399,53,213399,64914,213399,
2071,213401,158.88872,213401,54,213401,64914,213399,
2038,213419,151.50824,213419,54,213419,64967,213419,
2270,213447,160.04192,213447,53,213447,64928,213447,
2348,213449,157.88928,213449,54,213449,64922,213449,
2425,213451,156.88984,213451,54,213451,64922,213449,
1324,213479,158.5812,213479,53,213479,64942,213479,
1126,213481,158.5812,213481,53,213481,64942,213479,
2084,213519,161.272,213519,54,213519,64991,213518,
2042,213535,165.5004,213535,54,213535,65005,213530,
2125,213547,160.58008,213547,52,213547,65001,213547,
2101,213551,160.34944,213551,52,213551,64971,213552,
2141,213565,163.194,213565,52,213565,64942,213566,
2143,213567,159.11936,213567,53,213567,64942,213566,
2139,213569,161.11824000000001,213569,53,213569,64947,213569,
2097,213589,156.35168,213589,53,213589,65001,213589,
2071,213591,163.42464,213591,53,213591,64998,213592,
2069,213595,159.65752,213595,53,213595,64998,213592,
2089,213597,161.88704,213597,53,213597,64998,213592,
2166,213621,164.19344,213621,54,213621,64993,213621,
2206,213639,164.80848,213639,55,213639,65006,213639,
2222,213641,165.26976,213641,56,213641,65010,213641,
2220,213657,169.11376,213657,56,213657,65018,213651,
2254,213661,167.49928,213661,55,213661,65023,213661,
2254,213667,166.42296,213667,55,213667,65023,213661,
2235,213669,164.65472,213669,56,213669,65023,213669,
2185,213679,168.34496000000001,213679,56,213679,65038,213679,
2193,213681,159.19624,213681,56,213681,65003,213681,
2037,213697,164.34720000000002,213697,56,213697,65015,213691,
2026,213701,166.11544,213701,53,213701,65015,213701,
1885,213717,163.80904,213717,53,213717,64982,213711,
1886,213719,165.116,213719,53,213719,64977,213719,
1890,213731,170.42072,213731,53,213731,64967,213731,
1889,213741,167.11488,213741,53,213741,64955,213741,
1910,213747,164.65472,213747,53,213747,64955,213741,
1891,213749,162.96336,213749,52,213749,64977,213749,
1952,213761,167.038,213761,53,213761,64995,213761,
1965,213771,162.96336,213771,54,213771,65010,213771,
2013,213781,159.04248,213781,54,213781,64998,213781,
2069,213807,162.11768,213807,56,213807,65035,213801,
2036,213811,166.88424,213811,54,213811,65047,213811,
2054,213817,166.2692,213817,53,213817,65047,213811,
2073,213819,166.2692,213819,54,213819,65053,213820,
2089,213821,167.26864,213821,53,213821,65053,213820,
2101,213825,163.65528,213825,54,213825,65053,213820,
2090,213827,169.7288,213827,54,213827,65028,213828,
2034,213837,166.6536,213837,54,213837,65011,213838,
2057,213839,166.42296,213839,54,213839,65023,213840,
2034,213857,172.49648,213857,54,213857,65016,213850,
2070,213871,165.96168,213871,53,213871,65013,213869,
2040,213875,174.41848,213875,53,213875,65013,213869,
2049,213877,163.42464,213877,54,213877,65065,213877,
2072,213879,174.26472,213879,54,213879,65079,213879,
2033,213899,165.5004,213899,53,213899,65016,213899,
2060,213901,174.726,213901,54,213901,65016,213899,
2123,213907,168.42184,213907,53,213907,65008,213907,
2105,213909,170.882,213909,53,213909,65004,213909,
2072,213911,171.42016,213911,54,213911,65004,213909,
2032,213919,170.19008,213919,54,213919,65004,213919,
2108,213927,173.49592,213927,53,213927,65036,213927,
2051,213937,171.18952000000002,213937,54,213937,65013,213937,
2107,213959,167.19176,213959,54,213959,65022,213959,
2112,213971,169.57504,213971,52,213971,65033,213969,
2127,214001,176.57112,214001,53,214001,65018,214002,
2099,214011,174.41848,214011,54,214011,65021,214012,
2038,214019,174.11096,214019,54,214019,65072,214019,
2030,214021,169.65192,214021,53,214021,65072,214019,
2010,214025,165.34664,214025,54,214025,64992,214026,
1998,214027,175.72544,214027,54,214027,64992,214026,
2014,214049,175.03352,214049,54,214049,65056,214049,
2000,214051,166.49984,214051,54,214051,65056,214049,
2089,214067,172.72712,214067,54,214067,65079,214067,
2065,214071,173.41904,214071,54,214071,65028,214072,
2040,214079,177.72432,214079,53,214079,65057,214079,
2064,214101,179.49256,214101,54,214101,65073,214101,
2072,214107,175.80232,214107,54,214107,65073,214101,
2930,214137,177.0324,214137,56,214137,65088,214131,
1211,214151,169.03688,214151,53,214151,65068,214151,
973,214157,177.0324,214157,54,214157,65068,214151,
1292,214161,174.49536,214161,53,214161,65074,214161,
1777,214167,175.41792,214167,54,214167,65074,214161,
1872,214169,172.95776,214169,54,214169,65070,214169,
1922,214171,176.34048,214171,53,214171,65083,214171,
2129,214211,180.03072,214211,54,214211,65030,214211,
2138,214221,173.80344,214221,54,214221,65049,214221,
2130,214227,180.95328,214227,53,214227,65049,214221,
2092,214231,179.56944000000001,214231,53,214231,65062,214231,
2086,214237,179.18504000000001,214237,54,214237,65062,214231,
2093,214239,177.33992,214239,54,214239,65071,214239,
2100,214257,179.56944000000001,214257,54,214257,65064,214251,
2117,214259,178.26248,214259,55,214259,65081,214259,
2155,214269,176.2636,214269,56,214269,65079,214269,
2194,214287,181.2608,214287,54,214287,65105,214281,
2249,214306,179.56944000000001,214306,56,214306,65082,214300,
2222,214309,181.79896,214309,54,214309,65075,214310,
2190,214311,182.72152,214311,54,214311,65075,214310,
2156,214316,182.41400000000002,214316,54,214316,65075,214310,
2163,214317,179.41568,214317,56,214317,65067,214318,
2212,214321,176.87864,214321,54,214321,65081,214320,
2286,214326,179.3388,214326,55,214326,65081,214320,
2217,214341,181.03016,214341,55,214341,65060,214339,
2150,214355,177.87808,214355,54,214355,65128,214349,
2099,214365,183.33656,214365,53,214365,65121,214359,
2077,214367,181.56832,214367,53,214367,65093,214367,
2045,214369,179.64632,214369,53,214369,65088,214370,
1940,214387,183.5672,214387,52,214387,65099,214387,
1862,214391,181.2608,214391,52,214391,65098,214390,
1806,214395,178.9544,214395,52,214395,65098,214390,
1805,214397,186.10424,214397,51,214397,65113,214397,
1826,214399,176.2636,214399,51,214399,65086,214400,
1850,214415,181.18392,214415,52,214415,65094,214410,
1947,214437,183.5672,214437,53,214437,65085,214438,
1964,214439,181.2608,214439,53,214439,65085,214438,
1972,214441,181.87584,214441,53,214441,65110,214442,
1970,214451,176.34048,214451,53,214451,65132,214449,
1982,214455,178.33936,214455,53,214455,65084,214456,
1998,214457,185.18168,214457,53,214457,65084,214456,
2020,214459,178.57,214459,54,214459,65064,214459,
1979,214471,182.18336,214471,53,214471,65084,214472,
1971,214477,178.26248,214477,53,214477,65084,214472,
2011,214485,185.02792,214485,54,214485,65031,214482,
2010,214487,185.25856,214487,53,214487,65130,214487,
1998,214489,184.87416,214489,53,214489,65130,214487,
2029,214499,180.26136,214499,54,214499,65138,214499,
2049,214501,188.5644,214501,53,214501,65138,214499,
2091,214525,178.9544,214525,54,214525,65112,214522,
2049,214535,185.33544,214535,53,214535,65136,214532,
2057,214537,184.25912,214537,53,214537,65150,214537,
2053,214551,179.3388,214551,54,214551,65102,214551,
2020,214557,189.3332,214557,53,214557,65102,214551,
2040,214559,179.49256,214559,54,214559,65111,214559,
2060,214571,183.5672,214571,53,214571,65136,214571,
2072,214591,186.33488,214591,54,214591,65158,214591,
2062,214599,183.5672,214599,53,214599,65153,214599,
2083,214609,188.87192,214609,54,214609,65163,214609,
2065,214611,185.56608,214611,54,214611,65149,214611,
2048,214617,185.95048,214617,54,214617,65149,214611,
2068,214619,186.33488,214619,54,214619,65162,214619,
2061,214631,191.17832,214631,54,214631,65136,214631,
2044,214637,183.5672,214637,54,214637,65136,214631,
2110,214661,189.94824,214661,53,214661,65115,214661,
2114,214671,185.71984,214671,53,214671,65111,214671,
2147,214677,184.7204,214677,54,214677,65111,214671,
2118,214691,188.71816,214691,54,214691,65101,214691,
2105,214697,189.56384,214697,54,214697,65101,214691,
2114,214699,187.56496,214699,54,214699,65112,214699,
2132,214709,192.63904,214709,53,214709,65128,214709,
2107,214711,185.71984,214711,54,214711,65125,214711,
1953,214731,195.0992,214731,53,214731,65111,214731,
2060,214769,190.25576,214769,54,214769,65160,214770,
2038,214771,191.94712,214771,53,214771,65160,214770,
2005,214775,192.10088,214775,53,214775,65160,214770,
2008,214777,188.71816,214777,53,214777,65122,214778,
2076,214787,193.71536,214787,53,214787,65116,214788,
2050,214789,187.0268,214789,53,214789,65131,214790,
2076,214801,190.64016,214801,53,214801,65122,214799,
2072,214809,196.55992,214809,53,214809,65107,214809,
2053,214811,186.48864,214811,54,214811,65107,214809,
2223,214821,193.25408000000002,214821,53,214821,65161,214819,
2440,214825,191.48584,214825,54,214825,65161,214819,
2554,214827,189.87136,214827,53,214827,65164,214827,
2996,214841,191.40896,214841,54,214841,65144,214839,
2675,214845,193.946,214845,54,214845,65144,214839,
1643,214851,192.024,214851,53,214851,65127,214849,
1004,214855,189.87136,214855,52,214855,65127,214849,
862,214859,186.33488,214859,53,214859,65118,214859,
1534,214867,189.10256,214867,53,214867,65130,214867,
1797,214871,192.33152,214871,53,214871,65108,214869,
2107,214887,198.09752,214887,53,214887,65135,214887,
2074,214901,194.40728000000001,214901,53,214901,65138,214899,
2122,214905,191.33208,214905,54,214905,65138,214899,
2080,214915,187.71872,214915,53,214915,65139,214909,
2100,214919,193.63848000000002,214919,54,214919,65156,214919,
2100,214931,195.79112,214931,51,214931,65146,214929,
2096,214939,196.09864,214939,52,214939,65158,214939,
2137,214947,194.86856,214947,52,214947,65137,214942,
2096,214975,196.2524,214975,54,214975,65117,214976,
2092,214977,196.2524,214977,53,214977,65117,214976,
2105,214979,195.40672,214979,54,214979,65156,214979,
2168,214989,190.102,214989,53,214989,65191,214987,
2158,214991,200.25016,214991,54,214991,65191,214992,
2206,215007,194.7148,215007,54,215007,65158,215001,
2171,215011,193.48472,215011,54,215011,65145,215011,
2188,215017,199.17384,215017,54,215017,65145,215011,
2252,215021,198.48192,215021,54,215021,65158,215021,
2260,215027,196.79056,215027,55,215027,65158,215021,
2212,215049,191.02456,215049,54,215049,65184,215049,
2194,215051,196.40616,215051,53,215051,65190,215051,
2152,215057,198.1744,215057,53,215057,65190,215051,
2159,215059,196.55992,215059,54,215059,65190,215059,
2094,215069,202.55656,215069,54,215069,65201,215069,
2062,215071,191.10144,215071,54,215071,65200,215071,
1951,215089,194.79168,215089,54,215089,65209,215089,
1916,215091,202.47968,215091,53,215091,65186,215091,
1846,215099,200.32704,215099,52,215099,65215,215099,
1854,215101,195.17608,215101,53,215101,65198,215101,
1862,215109,197.94376,215109,53,215109,65201,215109,
1849,215111,198.63568,215111,54,215111,65187,215111,
1899,215121,203.63288,215121,53,215121,65198,215121,
1898,215131,199.86576,215131,54,215131,65163,215131,
1994,215149,192.71592,215149,56,215149,65144,215149,
1973,215151,202.86408,215151,54,215151,65149,215151,
2031,215161,199.94264,215161,54,215161,65147,215161,
2035,215191,200.71144,215191,53,215191,65186,215191,
2026,215197,194.17664,215197,53,215197,65186,215191,
2076,215221,206.2468,215221,53,215221,65208,215221,
2089,215231,200.86520000000002,215231,54,215231,65221,215231,
2060,215237,201.17272,215237,54,215237,65221,215231,
2096,215245,198.48192,215245,54,215245,65223,215240,
2093,215247,206.16992,215247,54,215247,65183,215248,
2082,215249,195.4836,215249,54,215249,65190,215250,
2077,215266,207.47688,215266,53,215266,65194,215260,
2075,215277,207.86128,215277,53,215277,65177,215270,
2093,215279,198.09752,215279,53,215279,65178,215279,
2076,215289,204.78608,215289,53,215289,65175,215289,
2002,215295,201.32648,215295,54,215295,65175,215289,
2010,215297,200.09640000000002,215297,54,215297,65228,215297,
2100,215317,205.40112,215317,54,215317,65191,215317,
2106,215325,206.70808,215325,54,215325,65168,215319,
2086,215327,198.1744,215327,53,215327,65158,215327,
2068,215339,199.48136,215339,54,215339,65161,215339,
2102,215349,201.86464,215349,54,215349,65165,215349,
2145,215367,206.01616,215367,53,215367,65176,215367,
2138,215369,207.32312000000002,215369,54,215369,65177,215369,
2173,215389,207.4,215389,53,215389,65199,215389,
2163,215399,205.8624,215399,53,215399,65189,215399,
2105,215421,206.47744,215421,53,215421,65168,215422,
2113,215425,206.01616,215425,52,215425,65168,215422,
2113,215427,203.86352,215427,52,215427,65168,215422,
1972,215441,209.16824,215441,53,215441,65142,215442,
1993,215457,203.09472,215457,53,215457,65224,215452,
2013,215459,209.86016,215459,52,215459,65223,215459,
2045,215465,201.94152,215465,54,215465,65196,215466,
2007,215475,204.24792,215475,53,215475,65223,215472,
2030,215477,206.40056,215477,53,215477,65223,215472,
2006,215495,199.25072,215495,54,215495,65254,215492,
2053,215499,208.24568,215499,54,215499,65251,215497,
2086,215501,208.39944,215501,53,215501,65175,215502,
2059,215519,210.70584,215519,54,215519,65188,215519,
2093,215525,207.32312000000002,215525,53,215525,65254,215522,
2768,215541,209.55264,215541,54,215541,65222,215542,
1787,215561,206.70808,215561,54,215561,65231,215561,
892,215567,213.5504,215567,53,215567,65231,215561,
827,215569,203.9404,215569,53,215569,65253,215569,
1820,215581,211.93592,215581,53,215581,65231,215581,
2043,215589,212.7816,215589,54,215589,65232,215589,
2049,215591,206.01616,215591,53,215591,65234,215591,
2096,215601,212.47408000000001,215601,53,215601,65216,215601,
2100,215607,209.55264,215607,55,215607,65216,215601,
2114,215621,203.9404,215621,54,215621,65177,215621,
2096,215631,210.24456,215631,54,215631,65180,215631,
2121,215641,209.16824,215641,53,215641,65195,215641,
2160,215647,206.16992,215647,54,215647,65195,215641,
2136,215649,215.01112,215649,54,215649,65211,215649,
2116,215671,214.39608,215671,54,215671,65196,215671,
2126,215677,206.86184,215677,54,215677,65196,215671,
2164,215701,217.62504,215701,54,215701,65246,215701,
2145,215711,212.93536,215711,56,215711,65254,215710,
2192,215719,212.62784,215719,54,215719,65217,215720,
2188,215731,215.31864000000002,215731,54,215731,65223,215730,
2219,215736,214.08856,215736,54,215736,65223,215730,
2238,215747,212.85848000000001,215747,54,215747,65229,215740,
2195,215751,208.86072000000001,215751,54,215751,65206,215749,
2192,215755,208.1688,215755,54,215755,65206,215749,
2204,215757,219.16264,215757,53,215757,65211,215757,
2216,215759,210.0908,215759,54,215759,65202,215759,
2218,215761,218.93200000000002,215761,54,215761,65202,215759,
2096,215775,213.166,215775,53,215775,65272,215769,
2059,215787,217.93256,215787,54,215787,65239,215787,
1915,215797,215.93368,215797,54,215797,65207,215797,
1908,215807,209.09136,215807,53,215807,65198,215807,
1890,215809,215.93368,215809,53,215809,65184,215809,
1859,215821,212.55096,215821,53,215821,65198,215819,
1883,215831,214.62672,215831,53,215831,65189,215829,
1854,215835,220.54648,215835,53,215835,65189,215829,
1866,215837,211.6284,215837,53,215837,65212,215837,
1939,215847,216.85624,215847,52,215847,65188,215847,
1926,215851,214.62672,215851,53,215851,65232,215849,
2002,215867,211.93592,215867,54,215867,65222,215867,
2019,215877,214.08856,215877,52,215877,65222,215877,
2059,215887,216.31808,215887,53,215887,65261,215887,
2036,215889,210.8596,215889,53,215889,65261,215887,
2049,215915,212.3972,215915,53,215915,65177,215912,
2057,215917,221.39216000000002,215917,53,215917,65177,215912,
2072,215919,211.55152,215919,54,215919,65269,215919,
2072,215931,218.47072,215931,53,215931,65271,215932,
2072,215959,219.23952,215959,52,215959,65271,215957,
2103,215967,212.08968000000002,215967,53,215967,65221,215962,
2083,215969,222.69912,215969,53,215969,65237,215969,
2057,215971,213.85792,215971,53,215971,65238,215971,
2067,215989,215.93368,215989,54,215989,65260,215989,
2041,215991,221.31528,215991,53,215991,65265,215991,
2084,215999,220.00832,215999,53,215999,65263,215999,
2100,216001,214.47296,216001,53,216001,65276,216001,
2057,216011,216.31808,216011,53,216011,65272,216011,
2083,216019,214.78048,216019,53,216019,65278,216019,
2108,216041,218.24008,216041,53,216041,65242,216041,
2052,216051,222.776,216051,53,216051,65269,216051,
2054,216057,215.16488,216057,54,216057,65269,216051,
2080,216059,222.62224,216059,53,216059,65273,216059,
2101,216071,218.77824,216071,53,216071,65254,216071,
2114,216077,219.70080000000002,216077,53,216077,65254,216071,
2134,216079,214.39608,216079,53,216079,65224,216079,
2145,216081,225.15928,216081,54,216081,65220,216081,
2185,216099,219.62392,216099,54,216099,65219,216099,
2153,216107,224.46736,216107,54,216107,65204,216101,
2118,216119,220.08520000000001,216119,53,216119,65231,216119,
2145,216121,222.46848,216121,54,216121,65241,216121,
2116,216129,224.23672,216129,54,216129,65247,216129,
2086,216131,215.77992,216131,54,216131,65243,216131,
2016,216137,225.69744,216137,54,216137,65243,216131,
2019,216139,217.77880000000002,216139,54,216139,65248,216139,
1973,216151,223.85232,216151,53,216151,65238,216151,
2002,216159,226.77376,216159,54,216159,65240,216159,
2016,216171,224.3136,216171,53,216171,65272,216171,
2032,216177,224.62112,216177,54,216177,65272,216171,
2059,216209,220.77712,216209,55,216209,65249,216210,
2028,216211,222.69912,216211,54,216211,65249,216210,
2021,216216,225.62056,216216,53,216216,65249,216210,
2079,216227,225.23616,216227,53,216227,65230,216227,
2073,216229,225.0824,216229,53,216229,65217,216229,
2085,216231,223.1604,216231,54,216231,65217,216229,
2181,216235,221.39216000000002,216235,54,216235,65217,216229,
2675,216245,226.08184,216245,54,216245,65270,216239,
2474,216261,224.54424,216261,54,216261,65251,216259,
1032,216271,229.77208000000002,216271,53,216271,65220,216269,
989,216275,229.3108,216275,53,216275,65220,216269,
2075,216311,222.46848,216311,55,216311,65242,216309,
2081,216315,226.31248,216315,54,216315,65242,216309,
2096,216317,226.08184,216317,54,216317,65218,216317,
2102,216319,226.69688,216319,54,216319,65255,216319,
2114,216327,230.77152,216327,53,216327,65219,216327,
2069,216335,228.31136,216335,54,216335,65235,216329,
2135,216347,223.46792,216347,54,216347,65237,216347,
2082,216357,229.23392,216357,53,216357,65278,216357,
2152,216367,224.85176,216367,54,216367,65238,216362,
2134,216369,224.54424,216369,54,216369,65282,216369,
2109,216371,228.1576,216371,54,216371,65282,216369,
2077,216375,228.38824,216375,54,216375,65244,216376,
2125,216391,229.61832,216391,53,216391,65264,216392,
2155,216401,228.84952,216401,54,216401,65289,216399,
2170,216405,233.30856,216405,53,216405,65240,216406,
2162,216407,223.77544,216407,54,216407,65240,216406,
2181,216417,231.84784,216417,54,216417,65257,216412,
2219,216425,225.92808,216425,54,216425,65277,216422,
2243,216441,225.4668,216441,54,216441,65247,216441,
2212,216451,230.0796,216451,54,216451,65257,216451,
2181,216457,230.31024,216457,54,216457,65257,216451,
2200,216459,225.8512,216459,54,216459,65259,216459,
2130,216477,230.00272,216477,54,216477,65280,216471,
2043,216491,229.38768000000002,216491,53,216491,65288,216491,
1914,216529,233.76984000000002,216529,53,216529,65234,216529,
1886,216531,227.46568,216531,53,216531,65230,216532,
1868,216537,228.1576,216537,54,216537,65230,216532,
1904,216541,230.77152,216541,53,216541,65246,216542,
1948,216545,227.92696,216545,54,216545,65246,216542,
1954,216547,230.54088000000002,216547,53,216547,65254,216547,
1939,216549,224.54424,216549,53,216549,65254,216547,
1971,216561,232.386,216561,53,216561,65278,216561,
2006,216567,230.15648000000002,216567,54,216567,65278,216561,
2074,216581,234.23112,216581,53,216581,65257,216581,
2044,216591,229.77208000000002,216591,53,216591,65287,216591,
2052,216601,228.542,216601,54,216601,65248,216601,
2100,216607,237.46008,216607,53,216607,65248,216601,
2097,216609,229.23392,216609,53,216609,65278,216609,
2080,216621,234.92304000000001,216621,52,216621,65266,216621,
2093,216629,236.76816,216629,52,216629,65266,216621,
2073,216631,228.00384,216631,53,216631,65296,216631,
2056,216637,234.38488,216637,52,216637,65296,216631,
2066,216639,228.23448,216639,53,216639,65261,216639,
2078,216651,233.46232,216651,53,216651,65257,216650,
2077,216671,236.07624,216671,53,216671,65299,216669,
2070,216677,235.4612,216677,54,216677,65267,216677,
2048,216709,234.46176,216709,54,216709,65241,216709,
2109,216721,231.07904,216721,54,216721,65303,216719,
2053,216727,237.53696,216727,53,216727,65234,216727,
2037,216729,232.53976,216729,54,216729,65286,216729,
2032,216731,235.61496,216731,53,216731,65286,216729,
2104,216747,229.77208000000002,216747,54,216747,65217,216747,
2082,216749,235.61496,216749,54,216749,65249,216749,
2139,216761,233.1548,216761,54,216761,65227,216759,
2125,216769,232.386,216769,54,216769,65227,216769,
2121,216777,231.38656,216777,54,216777,65283,216777,
2145,216779,240.38152,216779,53,216779,65283,216777,
2171,216781,228.77264,216781,54,216781,65283,216777,
2131,216809,230.15648000000002,216809,54,216809,65234,216809,
2080,216817,235.38432,216817,53,216817,65239,216817,
2078,216821,236.61440000000002,216821,53,216821,65249,216819,
2085,216825,237.15256,216825,51,216825,65249,216819,
1992,216859,234.308,216859,52,216859,65287,216859,
2083,216869,229.84896,216869,52,216869,65291,216869,
2038,216875,233.00104000000002,216875,52,216875,65220,216872,
2037,216877,235.23056,216877,52,216877,65220,216872,
2051,216879,235.76872,216879,51,216879,65291,216879,
2067,216889,234.99992,216889,52,216889,65295,216887,
2077,216909,233.23168,216909,52,216909,65237,216909,
2089,216921,232.23224000000002,216921,51,216921,65260,216921,
2980,216941,232.92416,216941,52,216941,65280,216941,
2444,216951,230.8484,216951,52,216951,65300,216951,
1473,216957,231.6172,216957,50,216957,65300,216951,
1210,216959,231.46344,216959,51,216959,65287,216959,
1456,216971,230.8484,216971,50,216971,65286,216971,
2117,216991,230.69464,216991,51,216991,65266,216991,
2100,217011,230.23336,217011,51,217011,65281,217011,
2094,217037,229.23392,217037,52,217037,65243,217031,
2132,217041,229.15704,217041,52,217041,65228,217041,
2153,217047,229.15704,217047,52,217047,65228,217041,
2154,217049,228.77264,217049,52,217049,65251,217049,
2155,217059,228.84952,217059,52,217059,65238,217059,
2147,217061,228.61888000000002,217061,52,217061,65242,217061,
2139,217079,228.23448,217079,53,217079,65265,217079,
2150,217081,228.31136,217081,52,217081,65267,217081,
2152,217089,228.1576,217089,52,217089,65270,217089,
2164,217099,228.00384,217099,52,217099,65254,217099,
2235,217121,227.92696,217121,53,217121,65284,217121,
2236,217127,227.69632000000001,217127,53,217127,65284,217121,
2227,217129,227.69632000000001,217129,53,217129,65289,217130,
2218,217131,227.61944,217131,53,217131,65289,217130,
2030,217181,226.69688,217181,52,217181,65240,217179,
1918,217197,226.46624,217197,52,217197,65261,217197,
1867,217209,226.2356,217209,53,217209,65282,217209,
1901,217227,225.77432000000002,217227,52,217227,65243,217227,
1973,217241,225.4668,217241,53,217241,65235,217239,
1979,217247,225.38992000000002,217247,53,217247,65233,217247,
1949,217249,225.4668,217249,53,217249,65227,217249,
1924,217251,225.31304,217251,51,217251,65227,217249,
2045,217261,225.23616,217261,53,217261,65236,217259,
2050,217265,225.0824,217265,53,217265,65236,217259,
2030,217267,225.23616,217267,53,217267,65226,217267,
2034,217295,224.62112,217295,53,217295,65271,217289,
2057,217297,224.62112,217297,53,217297,65250,217297,
2082,217299,224.54424,217299,53,217299,65254,217299,
2044,217309,224.46736,217309,53,217309,65296,217307,
2037,217311,224.46736,217311,53,217311,65252,217312,
2061,217351,223.77544,217351,53,217351,65233,217352,
2032,217356,223.69856000000001,217356,53,217356,65233,217352,
2081,217379,223.39104,217379,53,217379,65316,217379,
2092,217381,223.39104,217381,53,217381,65311,217382,
2074,217386,223.1604,217386,53,217386,65311,217382,
2067,217397,222.85288,217397,53,217397,65251,217398,
2074,217399,223.00664,217399,54,217399,65251,217398,
2093,217429,222.62224,217429,52,217429,65303,217430,
2070,217439,222.46848,217439,54,217439,65286,217440,
2140,217461,222.16096000000002,217461,54,217461,65274,217462,
2101,217469,222.0072,217469,54,217469,65233,217470,
2160,217489,221.85344,217489,54,217489,65238,217490,
2160,217501,221.39216000000002,217501,53,217501,65254,217502,
2086,217515,221.31528,217515,53,217515,65293,217516,
2096,217521,221.2384,217521,53,217521,65189,217522,
1968,217539,221.00776,217539,54,217539,65264,217540,
1979,217547,220.77712,217547,53,217547,65274,217548,
1967,217551,220.77712,217551,53,217551,65297,217550,
2045,217571,220.39272,217571,54,217571,65241,217570,
2049,217587,220.39272,217587,54,217587,65302,217588,
2059,217597,220.16208,217597,54,217597,65289,217598,
2090,217601,219.93144,217601,53,217601,65235,217600,
2094,217606,219.93144,217606,54,217606,65235,217600,
2074,217607,220.00832,217607,54,217607,65280,217608,
2041,217609,219.77768,217609,53,217609,65246,217610,
2007,217617,219.93144,217617,54,217617,65273,217618,
2041,217621,219.70080000000002,217621,54,217621,65253,217620,
2755,217637,219.54704,217637,54,217637,65226,217638,
1736,217677,218.93200000000002,217677,53,217677,65287,217670,
1860,217679,218.85512,217679,53,217679,65268,217679,
1954,217681,218.85512,217681,54,217681,65268,217679,
2075,217691,218.93200000000002,217691,53,217691,65262,217689,
2074,217695,218.77824,217695,53,217695,65262,217689,
2078,217697,218.85512,217697,54,217697,65245,217697,
2074,217711,218.47072,217711,53,217711,65233,217709,
2106,217729,218.31696,217729,53,217729,65262,217729,
2122,217741,218.16320000000002,217741,53,217741,65263,217739,
2118,217747,218.08632,217747,54,217747,65242,217747,
2096,217749,218.00944,217749,54,217749,65253,217749,
2117,217767,217.70192,217767,54,217767,65260,217767,
2172,217785,217.54816,217785,54,217785,65250,217782,
2161,217809,217.16376,217809,54,217809,65259,217809,
2146,217811,217.24064,217811,54,217811,65214,217812,
2187,217819,217.08688,217819,54,217819,65299,217819,
2218,217835,217.24064,217835,54,217835,65276,217832,
2214,217837,217.01,217837,53,217837,65276,217832,
2217,217839,217.01,217839,54,217839,65298,217839,
2224,217849,216.93312,217849,53,217849,65305,217847,
2206,217851,217.01,217851,53,217851,65277,217852,
2104,217871,216.70248,217871,53,217871,65278,217871,
1929,217899,216.2412,217899,53,217899,65295,217899,
1848,217917,215.77992,217917,53,217917,65298,217911,
1905,217921,215.77992,217921,54,217921,65294,217921,
1901,217927,215.62616,217927,53,217927,65294,217921,
1882,217929,215.70304000000002,217929,53,217929,65309,217929,
1960,217941,215.39552,217941,54,217941,65285,217941,
2002,217961,215.24176,217961,53,217961,65294,217961,
2066,217999,214.54984000000002,217999,54,217999,65259,217999,
2091,218001,214.62672,218001,54,218001,65261,218001,
2091,218007,214.16544000000002,218007,54,218007,65261,218001,
2070,218009,214.54984000000002,218009,53,218009,65272,218009,
2040,218011,214.54984000000002,218011,53,218011,65272,218011,
2096,218021,214.39608,218021,53,218021,65279,218021,
2048,218051,214.01168,218051,54,218051,65288,218051,
2058,218057,213.9348,218057,54,218057,65288,218051,
2095,218067,213.5504,218067,54,218067,65298,218061,
2074,218069,213.62728,218069,54,218069,65303,218070,
2052,218071,213.62728,218071,54,218071,65303,218070,
2098,218099,213.24288,218099,53,218099,65275,218100,
2105,218101,213.47352,218101,54,218101,65275,218100,
2091,218106,213.31976,218106,54,218106,65275,218100,
2056,218115,213.166,218115,54,218115,65267,218109,
2083,218141,212.85848000000001,218141,53,218141,65308,218139,
2097,218147,212.70472,218147,53,218147,65289,218147,
2074,218149,212.62784,218149,53,218149,65304,218149,
2051,218151,212.85848000000001,218151,54,218151,65304,218149,
2050,218155,212.3972,218155,53,218155,65304,218149,
2061,218157,212.47408000000001,218157,53,218157,65258,218157,
2072,218159,212.70472,218159,53,218159,65306,218159,
2084,218171,212.32032,218171,53,218171,65240,218169,
2088,218175,212.16656,218175,54,218175,65240,218169,
2186,218205,212.0128,218205,53,218205,65241,218199,
2120,218225,211.55152,218225,54,218225,65274,218219,
2090,218229,211.70528000000002,218229,53,218229,65272,218229,
2070,218231,211.47464,218231,56,218231,65272,218229,
2061,218235,211.55152,218235,53,218235,65272,218229,
2063,218237,211.55152,218237,54,218237,65268,218237,
1994,218275,210.78272,218275,53,218275,65211,218276,
2065,218281,210.78272,218281,53,218281,65229,218282,
2089,218285,210.78272,218285,54,218285,65229,218282,
2069,218287,210.70584,218287,53,218287,65229,218282,
2032,218289,210.70584,218289,54,218289,65319,218289,
2058,218307,210.62896,218307,53,218307,65317,218307,
2026,218311,210.4752,218311,54,218311,65300,218312,
2049,218317,210.4752,218317,54,218317,65300,218312,
2068,218319,210.32144,218319,53,218319,65268,218319,
2036,218329,210.32144,218329,54,218329,65274,218329,
1473,218371,209.78328,218371,53,218371,65332,218371,
841,218377,209.55264,218377,53,218377,65332,218371,
896,218379,209.62952,218379,53,218379,65322,218379,
2085,218401,209.322,218401,54,218401,65312,218401,
2097,218409,209.47576,218409,53,218409,65323,218409,
2084,218411,209.322,218411,54,218411,65306,218411,
2104,218427,209.09136,218427,54,218427,65313,218421,
2084,218431,209.09136,218431,54,218431,65309,218431,
2120,218451,208.63008,218451,53,218451,65259,218451,
2105,218467,208.39944,218467,54,218467,65245,218461,
2158,218481,208.32256,218481,53,218481,65283,218481,
2147,218489,208.32256,218489,54,218489,65298,218489,
2142,218501,208.32256,218501,54,218501,65295,218501,
2217,218549,207.93816,218549,53,218549,65345,218549,
2195,218551,207.93816,218551,53,218551,65345,218549,
2188,218555,207.86128,218555,54,218555,65345,218549,
2238,218561,207.86128,218561,53,218561,65326,218559,
2224,218567,207.7844,218567,54,218567,65343,218567,
2110,218587,207.47688,218587,53,218587,65313,218587,
2025,218595,207.4,218595,53,218595,65263,218589,
2013,218601,207.09248,218601,53,218601,65267,218599,
1960,218605,207.4,218605,53,218605,65267,218599,
1925,218607,207.32312000000002,218607,52,218607,65283,218607,
1884,218625,206.86184,218625,53,218625,65289,218619,
1842,218629,206.78496,218629,53,218629,65302,218629,
1827,218631,206.78496,218631,53,218631,65302,218629,
1877,218639,206.6312,218639,53,218639,65299,218639,
1883,218641,206.6312,218641,53,218641,65299,218639,
1928,218657,206.47744,218657,53,218657,65273,218657,
2001,218677,206.09304,218677,53,218677,65276,218677,
2038,218687,206.01616,218687,53,218687,65300,218688,
2056,218698,205.78552,218698,53,218698,65321,218692,
2037,218731,205.24736000000001,218731,53,218731,65300,218732,
2039,218737,205.32424,218737,54,218737,65300,218732,
2060,218739,205.32424,218739,53,218739,65354,218739,
2035,218755,205.01672,218755,53,218755,65267,218752,
2065,218777,205.01672,218777,54,218777,65349,218772,
2091,218779,204.93984,218779,54,218779,65334,218779,
2109,218781,204.86296000000002,218781,53,218781,65310,218781,
2110,218787,204.7092,218787,53,218787,65310,218781,
2088,218789,204.93984,218789,54,218789,65289,218789,
2065,218801,204.55544,218801,53,218801,65323,218801,
2101,218807,204.7092,218807,54,218807,65323,218801,
2073,218829,204.40168,218829,54,218829,65344,218829,
2054,218831,204.3248,218831,53,218831,65363,218831,
2086,218837,204.17104,218837,53,218837,65363,218831,
2045,218851,204.24792,218851,53,218851,65357,218851,
2106,218859,204.09416000000002,218859,53,218859,65364,218859,
2108,218861,203.9404,218861,53,218861,65347,218861,
2038,218869,203.78664,218869,53,218869,65368,218869,
2104,218881,203.78664,218881,54,218881,65339,218881,
2092,218887,203.70976000000002,218887,54,218887,65339,218881,
2078,218889,203.63288,218889,54,218889,65341,218889,
2157,218901,203.63288,218901,53,218901,65343,218901,
2140,218909,203.47912,218909,53,218909,65317,218909,
2043,218947,202.94096,218947,53,218947,65302,218941,
2033,218949,202.94096,218949,54,218949,65316,218949,
2081,218959,202.71032,218959,54,218959,65319,218959,
2084,218961,202.7872,218961,53,218961,65320,218961,
2011,218981,202.47968,218981,54,218981,65324,218981,
2000,218997,202.24904,218997,53,218997,65326,218991,
2025,218999,202.32592,218999,54,218999,65308,218999,
2050,219001,202.17216,219001,53,219001,65344,219001,
2021,219011,202.09528,219011,53,219011,65351,219010,
2050,219037,201.94152,219037,53,219037,65329,219037,
2075,219039,201.94152,219039,54,219039,65362,219039,
2081,219041,201.71088,219041,53,219041,65362,219039,
2037,219055,201.71088,219055,53,219055,65359,219049,
2126,219059,201.71088,219059,53,219059,65367,219059,
2995,219079,201.48024,219079,54,219079,65364,219079,
3000,219081,201.48024,219081,54,219081,65364,219079,
2281,219089,201.17272,219089,54,219089,65364,219089,
1942,219091,201.24960000000002,219091,53,219091,65364,219089,
2029,219121,200.86520000000002,219121,53,219121,65284,219119,
2086,219127,200.71144,219127,53,219127,65307,219127,
2069,219129,200.86520000000002,219129,53,219129,65293,219129,
2104,219139,200.55768,219139,53,219139,65322,219139,
2108,219141,200.63456,219141,53,219141,65322,219139,
2135,219161,200.32704,219161,53,219161,65324,219159,
2102,219169,200.40392,219169,53,219169,65332,219169,
2074,219171,200.25016,219171,53,219171,65332,219169,
2094,219177,200.40392,219177,54,219177,65322,219177,
2153,219185,200.09640000000002,219185,53,219185,65328,219179,
2126,219201,200.01952,219201,54,219201,65300,219202,
2115,219209,199.94264,219209,54,219209,65360,219209,
2171,219255,199.86576,219255,54,219255,65349,219252,
2238,219281,199.63512,219281,54,219281,65366,219282,
2252,219285,199.48136,219285,54,219285,65366,219282,
2237,219287,199.48136,219287,53,219287,65381,219287,
2184,219291,199.3276,219291,53,219291,65291,219292,
2053,219317,199.09696,219317,53,219317,65374,219311,
2042,219319,199.09696,219319,53,219319,65372,219319,
2017,219321,199.02008,219321,53,219321,65370,219321,
1867,219351,198.71256,219351,53,219351,65362,219351,
1870,219359,198.5588,219359,53,219359,65354,219359,
1876,219371,198.32816,219371,53,219371,65366,219371,
1935,219391,198.02064000000001,219391,53,219391,65313,219391,
2042,219437,197.32872,219437,53,219437,65346,219431,
2093,219441,197.17496,219441,53,219441,65348,219441,
2106,219447,197.25184000000002,219447,53,219447,65348,219441,
2071,219467,197.09808,219467,53,219467,65357,219461,
2076,219487,196.79056,219487,54,219487,65387,219481,
2086,219497,196.71368,219497,53,219497,65348,219497,
2128,219501,196.71368,219501,53,219501,65385,219499,
2061,219509,196.6368,219509,53,219509,65385,219499,
2051,219535,196.17552,219535,53,219535,65326,219529,
2062,219541,196.2524,219541,53,219541,65384,219539,
2072,219545,196.09864,219545,53,219545,65384,219539,
2084,219577,195.94488,219577,53,219577,65337,219577,
2145,219585,195.63736,219585,54,219585,65317,219579,
2104,219591,195.63736,219591,53,219591,65312,219589,
2116,219595,195.71424,219595,53,219595,65312,219589,
2195,219605,195.56048,219605,53,219605,65323,219599,
2181,219607,195.4836,219607,53,219607,65337,219607,
2154,219609,195.4836,219609,53,219609,65352,219609,
2091,219639,195.02232,219639,53,219639,65345,219639,
2017,219669,194.7148,219669,53,219669,65386,219667,
2103,219685,194.48416,219685,53,219685,65330,219686,
2068,219687,194.09976,219687,53,219687,65330,219686,
2083,219701,194.3304,219701,53,219701,65384,219702,
2058,219709,194.3304,219709,53,219709,65382,219709,
2357,219741,193.86912,219741,54,219741,65341,219742,
2627,219747,193.946,219747,54,219747,65341,219742,
2692,219749,193.86912,219749,54,219749,65358,219749,
1198,219779,193.48472,219779,53,219779,65389,219779,
1360,219781,193.63848000000002,219781,52,219781,65402,219781,
1920,219791,193.25408000000002,219791,53,219791,65402,219791,
2032,219797,193.1772,219797,53,219797,65402,219791,
2105,219801,193.33096,219801,53,219801,65403,219801,
2113,219821,192.94656,219821,53,219821,65380,219821,
2116,219829,192.94656,219829,53,219829,65396,219829,
2130,219841,192.71592,219841,53,219841,65405,219841,
2089,219849,192.71592,219849,53,219849,65373,219849,
2160,219861,192.48528,219861,53,219861,65350,219861,
2101,219871,192.4084,219871,53,219871,65338,219871,
2156,219881,192.33152,219881,53,219881,65337,219881,
2136,219887,192.17776,219887,53,219887,65337,219881,
2162,219901,192.25464,219901,54,219901,65371,219901,
2107,219911,192.25464,219911,53,219911,65364,219911,
2158,219917,192.10088,219917,53,219917,65364,219911,
2181,219919,192.17776,219919,54,219919,65379,219919,
2203,219929,192.10088,219929,54,219929,65373,219929,
2179,219931,191.71648,219931,54,219931,65380,219931,
2171,219937,192.25464,219937,54,219937,65380,219931,
2220,219951,191.94712,219951,53,219951,65403,219951,
2181,219965,191.87024,219965,54,219965,65403,219960,
2158,219977,191.79336,219977,53,219977,65364,219978,
1973,219997,191.6396,219997,53,219997,65379,219990,
1989,219999,191.40896,219999,53,219999,65372,219999,
2000,220001,191.48584,220001,53,220001,65372,219999,
1908,220007,191.33208,220007,53,220007,65369,220007,
1841,220011,191.40896,220011,53,220011,65356,220009,
1894,220017,191.2552,220017,53,220017,65409,220017,
1886,220035,190.79392,220035,53,220035,65424,220029,
1909,220039,190.8708,220039,53,220039,65401,220039,
1924,220045,190.79392,220045,53,220045,65401,220039,
1995,220075,190.25576,220075,53,220075,65360,220069,
2059,220079,190.40952000000001,220079,53,220079,65374,220079,
2072,220081,190.25576,220081,53,220081,65374,220079,
2075,220085,190.102,220085,53,220085,65374,220079,
2028,220095,190.102,220095,54,220095,65390,220089,
2030,220099,190.102,220099,53,220099,65383,220099,
2042,220101,190.02512000000002,220101,53,220101,65383,220099,
2068,220119,189.87136,220119,53,220119,65390,220119,
2079,220121,189.87136,220121,53,220121,65390,220119,
2069,220129,189.87136,220129,53,220129,65388,220129,
2077,220139,189.64072000000002,220139,53,220139,65418,220137,
2073,220155,189.3332,220155,53,220155,65363,220156,
2090,220157,189.48696,220157,53,220157,65363,220156,
2065,220177,189.3332,220177,54,220177,65404,220172,
2054,220185,189.25632000000002,220185,53,220185,65367,220186,
2102,220201,189.17944,220201,53,220201,65396,220202,
2086,220211,188.9488,220211,53,220211,65377,220212,
2085,220217,188.71816,220217,53,220217,65404,220218,
2115,220221,189.02568,220221,53,220221,65384,220222,
2098,220251,188.71816,220251,53,220251,65336,220252,
2115,220261,188.5644,220261,54,220261,65337,220262,
2067,220269,188.33376,220269,53,220269,65392,220270,
2052,220281,188.33376,220281,54,220281,65376,220282,
1976,220291,188.18,220291,53,220291,65391,220292,
2014,220299,187.94936,220299,53,220299,65347,220300,
2033,220311,188.02624,220311,53,220311,65381,220312,
2021,220329,187.94936,220329,53,220329,65373,220330,
2073,220339,187.71872,220339,53,220339,65397,220340,
2075,220349,187.56496,220349,53,220349,65380,220342,
2040,220351,187.4112,220351,53,220351,65359,220351,
2405,220377,187.18056,220377,53,220377,65416,220378,
2547,220379,187.33432,220379,53,220379,65360,220380,
2845,220391,187.10368,220391,54,220391,65355,220390,
2534,220396,187.0268,220396,53,220396,65355,220390,
1665,220419,186.6424,220419,53,220419,65366,220420,
2014,220429,186.56552,220429,53,220429,65380,220430,
2045,220431,186.71928,220431,53,220431,65380,220430,
2124,220436,186.41176000000002,220436,53,220436,65380,220430,
2136,220437,186.48864,220437,54,220437,65361,220438,
2130,220441,186.41176000000002,220441,53,220441,65386,220440,
2088,220446,186.48864,220446,52,220446,65386,220440,
2076,220449,186.33488,220449,53,220449,65367,220450,
2120,220497,185.8736,220497,53,220497,65378,220497,
2081,220511,185.79672,220511,54,220511,65418,220511,
2098,220517,185.71984,220517,53,220517,65418,220511,
2112,220519,185.64296000000002,220519,53,220519,65398,220519,
2148,220555,185.56608,220555,54,220555,65366,220549,
2213,220561,185.41232,220561,54,220561,65380,220559,
2242,220565,185.71984,220565,54,220565,65380,220559,
2232,220567,185.71984,220567,53,220567,65347,220567,
2218,220569,185.56608,220569,53,220569,65371,220569,
2189,220595,185.4892,220595,54,220595,65384,220589,
2200,220597,185.56608,220597,54,220597,65374,220597,
2182,220607,185.18168,220607,53,220607,65362,220602,
2156,220609,185.33544,220609,53,220609,65416,220609,
1939,220635,184.95104,220635,53,220635,65337,220632,
1936,220641,184.95104,220641,52,220641,65408,220642,
1902,220665,184.48976,220665,53,220665,65395,220662,
1901,220677,184.25912,220677,52,220677,65416,220672,
1915,220679,184.336,220679,53,220679,65432,220679,
1963,220689,184.10536,220689,53,220689,65428,220689,
1958,220691,184.10536,220691,53,220691,65431,220692,
1982,220709,183.87472,220709,53,220709,65418,220709,
1971,220711,183.79784,220711,53,220711,65405,220711,
2034,220731,183.72096,220731,53,220731,65424,220731,
2094,220737,183.5672,220737,53,220737,65424,220731,
2029,220751,183.5672,220751,53,220751,65410,220751,
2102,220761,183.5672,220761,53,220761,65399,220761,
2080,220779,183.5672,220779,54,220779,65407,220779,
2040,220791,183.49032,220791,54,220791,65412,220791,
2090,220801,183.49032,220801,53,220801,65389,220801,
2060,220811,183.25968,220811,53,220811,65357,220811,
2058,220817,183.41344,220817,54,220817,65357,220811,
2073,220819,183.33656,220819,53,220819,65367,220819,
2099,220839,183.33656,220839,53,220839,65381,220839,
2089,220841,183.33656,220841,53,220841,65380,220841,
2041,220847,183.10592,220847,53,220847,65380,220841,
2058,220851,183.02904,220851,53,220851,65391,220851,
2109,220857,183.02904,220857,53,220857,65391,220851,
2145,220861,183.18280000000001,220861,54,220861,65377,220861,
2113,220889,182.72152,220889,53,220889,65366,220889,
2140,220901,182.56776,220901,53,220901,65413,220900,
2068,220921,182.26024,220921,53,220921,65418,220919,
1945,220931,181.95272,220931,53,220931,65413,220929,
1963,220935,182.18336,220935,53,220935,65413,220929,
2020,220945,182.26024,220945,54,220945,65425,220939,
1972,220949,182.18336,220949,53,220949,65420,220949,
2041,220977,181.79896,220977,53,220977,65397,220977,
2061,220979,181.6452,220979,54,220979,65380,220979,
2059,220987,181.56832,220987,53,220987,65365,220987,
2035,220989,181.72208,220989,53,220989,65353,220989,
2014,220991,181.56832,220991,53,220991,65353,220989,
2030,220995,181.56832,220995,54,220995,65353,220989,
2565,221029,181.33768,221029,54,221029,65349,221029,
2661,221031,181.33768,221031,53,221031,65349,221029,
2901,221041,181.03016,221041,53,221041,65368,221039,
2353,221047,181.03016,221047,53,221047,65353,221047,
2058,221049,180.95328,221049,54,221049,65364,221049,
1934,221075,180.72264,221075,53,221075,65364,221072,
2051,221079,180.56888,221079,53,221079,65413,221077,
2093,221081,180.72264,221081,53,221081,65358,221082,
2120,221087,180.33824,221087,54,221087,65358,221082,
2081,221095,180.56888,221095,53,221095,65378,221096,
2097,221097,180.41512,221097,53,221097,65378,221096,
2116,221099,180.56888,221099,53,221099,65381,221099,
2131,221101,180.33824,221101,53,221101,65344,221102,
2085,221135,180.03072,221135,53,221135,65391,221136,
2091,221137,180.03072,221137,52,221137,65391,221136,
2112,221139,179.95384,221139,53,221139,65361,221139,
2089,221149,180.1076,221149,53,221149,65421,221147,
2080,221151,179.64632,221151,53,221151,65365,221151,
2166,221181,179.56944000000001,221181,54,221181,65356,221182,
2112,221191,179.7232,221191,53,221191,65348,221192,
2205,221199,179.64632,221199,54,221199,65425,221200,
2211,221229,179.7232,221229,54,221229,65379,221230,
2189,221231,179.7232,221231,54,221231,65407,221232,
2222,221239,179.7232,221239,53,221239,65353,221240,
2243,221241,179.56944000000001,221241,54,221241,65401,221242,
2200,221249,179.18504000000001,221249,54,221249,65348,221250,
2044,221271,179.26192,221271,53,221271,65388,221272,
2010,221279,179.18504000000001,221279,53,221279,65400,221280,
1909,221289,179.03128,221289,53,221289,65396,221282,
1882,221291,178.72376,221291,53,221291,65377,221291,
1866,221296,178.9544,221296,52,221296,65377,221291,
1847,221311,178.64688,221311,52,221311,65416,221310,
1858,221316,178.57,221316,53,221316,65416,221310,
1907,221321,178.57,221321,53,221321,65384,221320,
1926,221326,178.41624000000002,221326,52,221326,65384,221320,
1921,221327,178.49312,221327,53,221327,65428,221328,
1961,221337,178.33936,221337,53,221337,65441,221338,
2030,221367,177.8012,221367,53,221367,65413,221368,
2062,221381,177.8012,221381,53,221381,65399,221380,
2066,221386,177.72432,221386,53,221386,65399,221380,
2066,221421,177.4168,221421,53,221421,65412,221420,
2066,221426,177.49368,221426,53,221426,65412,221420,
2060,221427,177.10928,221427,53,221427,65412,221420,
2080,221437,177.26304,221437,53,221437,65390,221437,
2052,221471,176.87864,221471,53,221471,65379,221469,
2072,221481,176.87864,221481,52,221481,65355,221479,
2074,221485,176.648,221485,53,221485,65355,221479,
2066,221487,176.648,221487,53,221487,65368,221487,
2115,221569,176.03296,221569,53,221569,65382,221570,
2113,221571,175.8792,221571,53,221571,65382,221570,
2152,221576,175.95608000000001,221576,53,221576,65429,221576,
2051,221611,175.64856,221611,53,221611,65405,221610,
1952,221631,175.41792,221631,53,221631,65354,221630,
1971,221636,175.41792,221636,53,221636,65353,221636,
2066,221666,174.87976,221666,53,221666,65383,221666,
2009,221671,175.03352,221671,53,221671,65358,221670,
2035,221676,174.87976,221676,53,221676,65394,221676,
2009,221689,174.64912,221689,53,221689,65373,221690,
2454,221719,174.41848,221719,53,221719,65363,221720,
2956,221731,174.18784,221731,55,221731,65344,221731,
2745,221737,174.26472,221737,53,221737,65344,221731,
2267,221741,174.26472,221741,53,221741,65434,221741,
1239,221747,174.03408,221747,53,221747,65434,221741,
1008,221749,174.18784,221749,53,221749,65427,221749,
2000,221771,173.88032,221771,53,221771,65411,221771,
2141,221779,173.88032,221779,53,221779,65381,221779,
2136,221781,173.80344,221781,53,221781,65355,221781,
2042,221791,173.64968,221791,53,221791,65383,221791,
2117,221817,173.41904,221817,54,221817,65426,221811,
2119,221827,173.26528,221827,53,221827,65408,221821,
2147,221861,172.95776,221861,53,221861,65434,221859,
2128,221867,172.95776,221867,53,221867,65411,221867,
2105,221869,172.95776,221869,53,221869,65414,221869,
2086,221871,172.88088,221871,53,221871,65414,221869,
2188,221907,173.34216,221907,54,221907,65413,221907,
2256,221917,173.03464,221917,54,221917,65410,221917,
2296,221921,173.11152,221921,54,221921,65379,221919,
2277,221925,173.11152,221925,53,221925,65379,221919,
2249,221927,172.95776,221927,54,221927,65376,221927,
2181,221935,173.11152,221935,54,221935,65372,221929,
2141,221957,172.72712,221957,53,221957,65373,221957,
2131,221961,172.65024,221961,53,221961,65400,221959,
2081,221965,172.65024,221965,54,221965,65400,221959,
2054,221967,172.57336,221967,53,221967,65393,221967,
1990,221977,172.65024,221977,53,221977,65352,221977,
1926,221985,172.18896,221985,52,221985,65385,221979,
1912,222001,171.95832000000001,222001,53,222001,65395,221999,
1842,222011,171.95832000000001,222011,52,222011,65410,222012,
1915,222018,171.80456,222018,53,222018,65410,222012,
1955,222021,171.72768,222021,52,222021,65426,222019,
2000,222041,171.34328,222041,53,222041,65377,222042,
1998,222051,171.34328,222051,53,222051,65426,222049,
2008,222055,171.18952000000002,222055,53,222055,65382,222056,
2021,222057,171.18952000000002,222057,53,222057,65382,222056,
2058,222061,171.2664,222061,53,222061,65345,222062,
2065,222065,171.18952000000002,222065,53,222065,65345,222062,
2058,222067,171.03576,222067,52,222067,65345,222062,
2049,222091,170.80512,222091,53,222091,65414,222089,
2076,222099,170.72824,222099,53,222099,65373,222099,
2084,222101,170.72824,222101,53,222101,65428,222102,
2064,222105,170.72824,222105,53,222105,65428,222102,
2053,222107,170.72824,222107,53,222107,65428,222102,
2044,222109,170.57448,222109,53,222109,65436,222109,
2072,222117,170.4976,222117,53,222117,65444,222117,
2092,222121,170.4976,222121,53,222121,65374,222122,
2074,222127,170.4976,222127,54,222127,65374,222122,
2060,222129,170.57448,222129,54,222129,65411,222129,
2053,222131,170.42072,222131,53,222131,65414,222131,
2097,222141,170.26696,222141,52,222141,65423,222141,
2102,222199,169.95944,222199,53,222199,65449,222199,
2037,222211,169.88256,222211,53,222211,65427,222211,
2065,222217,169.80568,222217,54,222217,65427,222211,
2086,222219,169.95944,222219,53,222219,65406,222219,
2089,222237,169.65192,222237,53,222237,65380,222231,
2083,222269,169.19064,222269,53,222269,65382,222269,
2070,222271,169.11376,222271,53,222271,65387,222271,
2120,222277,169.03688,222277,53,222277,65387,222271,
2145,222279,169.03688,222279,53,222279,65391,222279,
2156,222281,169.03688,222281,53,222281,65395,222281,
2128,222311,168.96,222311,53,222311,65399,222311,
2128,222317,168.88312,222317,54,222317,65399,222311,
2138,222321,168.88312,222321,53,222321,65415,222321,
1972,222349,168.5756,222349,52,222349,65380,222350,
1950,222357,168.34496000000001,222357,53,222357,65381,222358,
2017,222366,168.42184,222366,53,222366,65395,222360,
2017,222367,168.11432,222367,52,222367,65395,222360,
2021,222391,167.96056000000002,222391,53,222391,65434,222389,
2078,222397,167.96056000000002,222397,53,222397,65412,222397,
2093,222399,167.96056000000002,222399,53,222399,65432,222399,
2015,222431,167.49928,222431,53,222431,65373,222429,
2214,222439,167.72992,222439,53,222439,65357,222439,
2304,222441,167.49928,222441,54,222441,65357,222439,
2779,222451,167.49928,222451,54,222451,65354,222449,
2976,222455,167.34552,222455,54,222455,65354,222449,
3034,222457,167.49928,222457,54,222457,65377,222457,
3035,222459,167.4224,222459,53,222459,65391,222459,
925,222479,167.11488,222479,52,222479,65366,222479,
1084,222481,167.26864,222481,53,222481,65366,222479,
1744,222489,167.19176,222489,53,222489,65399,222489,
2115,222501,166.80736,222501,53,222501,65378,222502,
2127,222525,166.80736,222525,53,222525,65367,222522,
2112,222529,166.6536,222529,53,222529,65425,222529,
2101,222531,166.73048,222531,53,222531,65385,222532,
2109,222535,166.57672,222535,54,222535,65385,222532,
2149,222561,166.42296,222561,53,222561,65383,222561,
2172,222581,166.19232,222581,53,222581,65411,222581,
2124,222589,166.03856,222589,54,222589,65406,222589,
2154,222608,166.11544,222608,54,222608,65437,222601,
2135,222611,166.11544,222611,54,222611,65456,222611,
2213,222619,166.2692,222619,54,222619,65438,222619,
2234,222621,166.11544,222621,54,222621,65441,222621,
2233,222659,166.19232,222659,54,222659,65420,222659,
2062,222699,165.80792,222699,52,222699,65352,222699,
2049,222701,165.80792,222701,52,222701,65384,222701,
1954,222708,165.80792,222708,53,222708,65384,222701,
1922,222709,165.57728,222709,53,222709,65367,222709,
1908,222751,164.96224,222751,52,222751,65391,222751,
1957,222769,164.73160000000001,222769,52,222769,65410,222769,
1960,222771,164.65472,222771,52,222771,65410,222769,
2014,222775,164.65472,222775,52,222775,65410,222769,
2059,222795,164.34720000000002,222795,53,222795,65437,222789,
2068,222805,164.27032,222805,53,222805,65444,222799,
2053,222807,164.27032,222807,52,222807,65417,222807,
2042,222809,164.34720000000002,222809,53,222809,65419,222809,
2093,222847,163.96280000000002,222847,53,222847,65416,222847,
2083,222859,163.73216,222859,53,222859,65364,222859,
2076,222861,163.73216,222861,53,222861,65364,222859,
2045,222865,163.80904,222865,53,222865,65364,222859,
2033,222867,163.65528,222867,53,222867,65375,222867,
2033,222891,163.50152,222891,53,222891,65388,222889,
2107,222897,163.50152,222897,53,222897,65365,222897,
2114,222899,163.5784,222899,53,222899,65400,222899,
2063,222915,163.11712,222915,53,222915,65393,222909,
2082,222917,163.42464,222917,53,222917,65352,222917,
2074,222947,162.96336,222947,53,222947,65359,222947,
2048,222951,162.96336,222951,54,222951,65370,222952,
2095,222957,162.96336,222957,53,222957,65418,222957,
2105,222959,163.04024,222959,53,222959,65418,222957,
2102,222977,162.88648,222977,53,222977,65365,222976,
2084,222985,162.73272,222985,53,222985,65360,222982,
2070,222987,162.65584,222987,53,222987,65360,222982,
2060,222989,162.57896,222989,53,222989,65413,222989,
2156,222999,162.65584,222999,53,222999,65407,222997,
2158,223001,162.50208,223001,53,223001,65368,223002,
2156,223037,162.34832,223037,53,223037,65379,223032,
2140,223041,162.34832,223041,53,223041,65400,223042,
1984,223071,161.81016,223071,53,223071,65413,223072,
2017,223081,161.73328,223081,53,223081,65411,223082,
1999,223085,161.6564,223085,53,223085,65411,223082,
1989,223087,161.73328,223087,53,223087,65411,223082,
2050,223101,161.57952,223101,53,223101,65386,223102,
2070,223127,161.272,223127,53,223127,65403,223121,
2058,223139,161.19512,223139,53,223139,65403,223139,
2069,223147,161.272,223147,54,223147,65393,223141,
2053,223149,161.272,223149,54,223149,65391,223149,
2594,223171,160.81072,223171,54,223171,65369,223171,
2921,223177,160.8876,223177,54,223177,65369,223171,
3008,223181,160.73384000000001,223181,53,223181,65335,223181,
2631,223187,160.65696,223187,54,223187,65335,223181,
2050,223191,160.73384000000001,223191,53,223191,65342,223191,
2089,223229,160.58008,223229,52,223229,65382,223229,
2084,223231,160.34944,223231,53,223231,65371,223231,
2114,223241,160.27256,223241,53,223241,65362,223241,
2096,223247,160.1188,223247,53,223247,65362,223241,
2092,223249,160.27256,223249,53,223249,65377,223249,
2148,223279,160.04192,223279,53,223279,65360,223280,
2170,223281,159.96504,223281,53,223281,65360,223280,
2130,223286,159.96504,223286,53,223286,65360,223280,
2099,223331,159.7344,223331,54,223331,65419,223329,
2238,223361,159.81128,223361,54,223361,65391,223359,
2227,223367,159.96504,223367,54,223367,65347,223367,
2189,223371,159.88816,223371,54,223371,65351,223369,
2187,223375,159.65752,223375,57,223375,65351,223369,
2194,223377,159.81128,223377,54,223377,65355,223377,
2172,223391,159.81128,223391,54,223391,65329,223389,
2177,223395,159.65752,223395,54,223395,65329,223389,
2187,223397,159.7344,223397,53,223397,65348,223397,
2048,223419,159.50376,223419,52,223419,65366,223419,
1900,223439,159.11936,223439,53,223439,65346,223439,
1929,223461,158.5812,223461,53,223461,65401,223459,
1851,223469,158.5812,223469,52,223469,65358,223469,
1864,223471,158.5812,223471,52,223471,65316,223472,
1931,223475,158.42744,223475,53,223475,65316,223472,
1953,223477,158.50432,223477,52,223477,65402,223477,
1993,223495,158.11992,223495,53,223495,65355,223496,
2006,223511,158.11992,223511,53,223511,65398,223510,
2027,223529,157.8124,223529,53,223529,65332,223530,
2026,223531,157.8124,223531,54,223531,65332,223530,
2069,223561,157.428,223561,53,223561,65344,223560,
2091,223606,157.35112,223606,54,223606,65359,223606,
2054,223609,157.0436,223609,53,223609,65346,223610,
2048,223611,157.27424,223611,53,223611,65346,223610,
2053,223616,157.0436,223616,53,223616,65338,223616,
2050,223691,156.6592,223691,53,223691,65375,223691,
2129,223697,156.58232,223697,53,223697,65375,223691,
2193,223701,156.58232,223701,54,223701,65398,223701,
2075,223711,156.42856,223711,53,223711,65368,223711,
1988,223747,155.81352,223747,53,223747,65368,223747,
1993,223755,155.96728,223755,53,223755,65416,223749,
2020,223757,156.42856,223757,53,223757,65382,223757,
2038,223777,155.73664,223777,53,223777,65404,223777,
2074,223785,155.58288,223785,53,223785,65364,223779,
2068,223789,155.65976,223789,53,223789,65354,223789,
2057,223805,155.506,223805,53,223805,65334,223799,
2178,223831,155.04472,223831,53,223831,65358,223829,
2783,223851,155.1216,223851,54,223851,65375,223849,
2573,223855,154.96784,223855,54,223855,65375,223849,
2382,223857,155.04472,223857,53,223857,65373,223857,
1535,223877,154.7372,223877,53,223877,65344,223877,
1932,223885,154.81408,223885,53,223885,65370,223879,
2004,223889,154.7372,223889,53,223889,65375,223889,
2028,223891,154.58344,223891,53,223891,65375,223889,
2096,223929,154.58344,223929,53,223929,65404,223929,
2089,223931,154.19904,223931,53,223931,65312,223932,
2106,223947,154.27592,223947,53,223947,65353,223942,
2077,223971,153.81464,223971,53,223971,65404,223972,
2136,223977,153.81464,223977,51,223977,65404,223972,
2152,223979,153.89152,223979,53,223979,65395,223979,
2118,223987,153.73776,223987,53,223987,65376,223986,
2123,223991,153.584,223991,53,223991,65403,223992,
2140,224011,153.89152,224011,53,224011,65370,224011,
2222,224051,153.89152,224051,54,224051,65409,224051,
2112,224079,153.89152,224079,53,224079,65416,224079,
1845,224111,153.35336,224111,52,224111,65397,224111,
1921,224119,153.12272,224119,52,224119,65362,224119,
1970,224139,152.73832,224139,53,224139,65354,224139,
2006,224157,152.58456,224157,53,224157,65351,224151,
1993,224169,152.50768,224169,53,224169,65379,224169,
2050,224187,152.35392,224187,53,224187,65371,224181,
2061,224191,152.35392,224191,53,224191,65368,224191,
2091,224197,152.12328,224197,53,224197,65368,224191,
2076,224201,152.12328,224201,53,224201,65389,224201,
2039,224249,151.50824,224249,53,224249,65373,224250,
2070,224256,151.73888,224256,53,224256,65373,224250,
2076,224279,151.35448,224279,54,224279,65420,224279,
2088,224281,151.35448,224281,53,224281,65420,224279,
2080,224285,151.43136,224285,53,224285,65420,224279,
2061,224287,151.43136,224287,53,224287,65387,224287,
2107,224317,151.2776,224317,54,224317,65351,224317,
2122,224331,151.12384,224331,53,224331,65351,224329,
2140,224335,151.12384,224335,54,224335,65351,224329,
2149,224337,151.12384,224337,53,224337,65349,224337,
2108,224345,151.04696,224345,54,224345,65335,224339,
1961,224369,150.73944,224369,53,224369,65365,224369,
2051,224397,150.66256,224397,52,224397,65347,224392,
2033,224407,150.35504,224407,53,224407,65355,224402,
2006,224411,150.35504,224411,52,224411,65297,224412,
2049,224415,150.27816,224415,53,224415,65297,224412,
2081,224417,150.5088,224417,53,224417,65297,224412,
2056,224435,150.20128,224435,53,224435,65332,224432,
2068,224437,150.20128,224437,53,224437,65400,224437,
2274,224465,149.74,224465,53,224465,65401,224462,
2349,224467,149.81688,224467,54,224467,65401,224462,
2741,224475,149.81688,224475,53,224475,65408,224472,
2834,224477,149.81688,224477,53,224477,65414,224477,
2907,224479,149.66312,224479,53,224479,65414,224477,
1126,224501,149.58624,224501,52,224501,65389,224502,
1858,224515,149.43248,224515,53,224515,65408,224516,
1932,224517,149.50936,224517,53,224517,65408,224516,
2118,224527,149.43248,224527,53,224527,65391,224522,
2141,224537,149.04808,224537,53,224537,65372,224532,
2147,224539,149.20184,224539,53,224539,65359,224539,
2143,224601,148.74056,224601,53,224601,65354,224601,
2107,224611,148.27928,224611,53,224611,65338,224611,
2132,224617,148.35616,224617,53,224617,65338,224611,
2138,224619,148.66368,224619,54,224619,65359,224619,
2256,224679,148.9712,224679,54,224679,65361,224679,
2201,224697,148.9712,224697,54,224697,65374,224698,
2204,224701,148.9712,224701,54,224701,65382,224700,
2048,224711,148.89432,224711,53,224711,65378,224710,
2017,224716,148.89432,224716,53,224716,65378,224710,
2014,224717,148.74056,224717,54,224717,65375,224718,
1923,224729,148.74056,224729,53,224729,65361,224729,
