ECG_VALUE,ECG_TIME,BPM_VALUE,BPM_TIME,AUX_VALUE,AUX_TIME,PPG_VALUE,PPG_TIME
1892,856347,-4.865679999999999,856347,51,856347,62522,856348,
1792,856349,-4.94256,856349,51,856349,62483,856350,
1987,856365,-4.94256,856365,52,856365,62408,856359,
1899,856371,-4.865679999999999,856371,51,856371,62378,856369,
1961,856381,-4.94256,856381,51,856381,62447,856379,
2070,856401,-4.865679999999999,856401,51,856401,62449,856399,
2050,856405,-4.865679999999999,856405,51,856405,62449,856399,
1987,856407,-4.865679999999999,856407,51,856407,62451,856407,
1931,856409,-4.94256,856409,51,856409,62461,856409,
1890,856411,-4.94256,856411,51,856411,62461,856409,
1896,856415,-5.0194399999999995,856415,51,856415,62461,856409,
1948,856417,-4.94256,856417,51,856417,62470,856417,
2025,856419,-4.94256,856419,51,856419,62485,856419,
2112,856421,-4.94256,856421,51,856421,62485,856419,
2185,856425,-4.865679999999999,856425,52,856425,62485,856419,
2140,856427,-4.865679999999999,856427,51,856427,62514,856427,
2060,856429,-4.94256,856429,51,856429,62496,856429,
1981,856431,-4.865679999999999,856431,52,856431,62496,856429,
1972,856435,-4.94256,856435,52,856435,62496,856429,
2036,856437,-4.94256,856437,51,856437,62528,856437,
2112,856439,-4.94256,856439,51,856439,62530,856439,
2166,856441,-4.865679999999999,856441,52,856441,62530,856439,
2157,856445,-4.865679999999999,856445,52,856445,62530,856439,
2098,856447,-4.865679999999999,856447,52,856447,62576,856447,
2029,856449,-4.865679999999999,856449,51,856449,62603,856449,
1972,856451,-4.865679999999999,856451,51,856451,62603,856449,
1944,856455,-4.865679999999999,856455,52,856455,62603,856449,
1988,856457,-4.865679999999999,856457,50,856457,62597,856457,
2069,856459,-4.865679999999999,856459,51,856459,62648,856459,
2147,856461,-4.94256,856461,51,856461,62648,856459,
2208,856465,-4.94256,856465,51,856465,62648,856459,
2173,856467,-4.94256,856467,50,856467,62643,856467,
2093,856469,-4.94256,856469,52,856469,62670,856469,
1998,856471,-4.94256,856471,51,856471,62670,856469,
1910,856475,-4.94256,856475,51,856475,62670,856469,
1940,856477,-4.94256,856477,50,856477,62673,856477,
2013,856479,-4.94256,856479,51,856479,62715,856479,
2103,856481,-4.94256,856481,51,856481,62715,856479,
2161,856485,-4.94256,856485,51,856485,62715,856479,
2099,856487,-4.94256,856487,50,856487,62750,856487,
1995,856489,-4.865679999999999,856489,50,856489,62772,856489,
1909,856491,-4.94256,856491,51,856491,62796,856492,
1985,856495,-4.865679999999999,856495,51,856495,62796,856492,
2102,856497,-4.865679999999999,856497,51,856497,62796,856492,
2212,856499,-4.94256,856499,51,856499,62856,856499,
2296,856501,-4.94256,856501,51,856501,62849,856502,
2218,856539,-4.865679999999999,856539,52,856539,63014,856540,
2168,856546,-4.865679999999999,856546,51,856546,63007,856546,
2013,856549,-4.94256,856549,51,856549,63022,856550,
2236,856561,-4.865679999999999,856561,52,856561,63017,856560,
2330,856566,-4.94256,856566,51,856566,63000,856566,
2288,856569,-4.94256,856569,51,856569,62992,856570,
2080,856606,-4.865679999999999,856606,51,856606,62928,856606,
2138,856621,-5.32696,856621,51,856621,62899,856620,
2136,856659,-4.94256,856659,51,856659,62896,856660,
2136,856661,-4.94256,856661,51,856661,62896,856660,
2006,856666,-4.865679999999999,856666,52,856666,62900,856666,
1896,856669,-4.94256,856669,51,856669,62900,856666,
2240,856681,-4.94256,856681,51,856681,62993,856681,
2379,856709,-4.865679999999999,856709,51,856709,62964,856701,
2040,856731,-4.94256,856731,52,856731,63065,856731,
1201,856739,-4.865679999999999,856739,50,856739,63065,856731,
1214,856741,-4.865679999999999,856741,51,856741,63114,856741,
1918,856757,-4.94256,856757,51,856757,63122,856751,
2037,856759,-4.865679999999999,856759,51,856759,63107,856759,
2142,856761,-5.0194399999999995,856761,51,856761,63137,856761,
1973,856777,-4.94256,856777,51,856777,63185,856771,
2148,856847,-4.94256,856847,52,856847,63334,856847,
2091,856849,-4.865679999999999,856849,51,856849,63296,856849,
1986,856855,-4.94256,856855,51,856855,63296,856849,
2025,856857,-4.94256,856857,51,856857,63338,856857,
2102,856859,-4.94256,856859,51,856859,63332,856859,
2122,856871,-4.865679999999999,856871,52,856871,63335,856869,
2149,856879,-4.94256,856879,52,856879,63358,856879,
2086,856891,-4.7888,856891,51,856891,63365,856889,
2123,856897,-4.865679999999999,856897,52,856897,63351,856897,
2161,856917,-5.0194399999999995,856917,52,856917,63314,856917,
2208,856941,-4.94256,856941,52,856941,63013,856939,
2106,856961,-4.865679999999999,856961,52,856961,62615,856959,
2094,856967,-4.94256,856967,52,856967,62505,856966,
2049,856969,-4.94256,856969,51,856969,62401,856969,
1947,856981,-4.865679999999999,856981,52,856981,62330,856982,
1910,857005,-4.94256,857005,51,857005,62238,857002,
1901,857027,-4.94256,857027,51,857027,62321,857027,
2000,857057,-4.94256,857057,51,857057,62343,857051,
1992,857071,-4.865679999999999,857071,51,857071,62411,857071,
2029,857099,-5.0194399999999995,857099,51,857099,62481,857099,
2061,857101,-4.94256,857101,51,857101,62502,857101,
2310,857141,-4.865679999999999,857141,48,857141,62658,857141,
2109,857147,-4.865679999999999,857147,51,857147,62658,857141,
1888,857151,-4.94256,857151,51,857151,62690,857151,
1886,857157,-4.865679999999999,857157,51,857157,62690,857151,
1979,857159,-4.94256,857159,51,857159,62679,857159,
2020,857177,-4.865679999999999,857177,51,857177,62700,857171,
2158,857197,-4.94256,857197,51,857197,62698,857191,
2261,857241,-4.865679999999999,857241,51,857241,62645,857241,
1796,857275,-4.94256,857275,52,857275,62635,857270,
1831,857277,-4.865679999999999,857277,52,857277,62632,857278,
1925,857279,-4.865679999999999,857279,51,857279,62618,857280,
1914,857291,-4.865679999999999,857291,52,857291,62628,857290,
2064,857299,-4.865679999999999,857299,51,857299,62643,857300,
2013,857311,-4.94256,857311,50,857311,62661,857309,
2037,857337,-4.94256,857337,51,857337,62729,857337,
2059,857339,-4.865679999999999,857339,51,857339,62772,857339,
1968,857351,-4.865679999999999,857351,51,857351,62772,857349,
2602,857375,-4.94256,857375,52,857375,62777,857369,
1425,857397,-4.865679999999999,857397,51,857397,62831,857397,
1235,857399,-4.94256,857399,51,857399,62842,857399,
1169,857401,-4.94256,857401,51,857401,62842,857399,
1960,857419,-4.865679999999999,857419,50,857419,62897,857419,
2220,857425,-4.94256,857425,51,857425,62897,857419,
2189,857427,-4.94256,857427,50,857427,62895,857427,
2097,857429,-4.94256,857429,51,857429,62896,857429,
2154,857479,-4.94256,857479,52,857479,63010,857479,
2045,857491,-4.94256,857491,51,857491,63045,857492,
2069,857511,-4.94256,857511,51,857511,63079,857502,
2148,857517,-4.94256,857517,50,857517,63107,857515,
2181,857519,-4.865679999999999,857519,51,857519,63035,857519,
2057,857537,-4.865679999999999,857537,51,857537,63066,857532,
2260,857541,-4.94256,857541,51,857541,63125,857541,
2217,857561,-4.7888,857561,51,857561,63133,857561,
2261,857581,-4.865679999999999,857581,51,857581,62995,857581,
2157,857587,-4.865679999999999,857587,51,857587,62995,857581,
2130,857589,-4.865679999999999,857589,51,857589,62938,857589,
2249,857601,-4.865679999999999,857601,52,857601,62628,857601,
1875,857619,-4.94256,857619,51,857619,62366,857619,
2091,857641,-4.865679999999999,857641,51,857641,62150,857641,
1894,857647,-4.865679999999999,857647,51,857647,62150,857641,
1821,857649,-4.711919999999999,857649,51,857649,62143,857649,
2019,857719,-4.94256,857719,51,857719,62198,857719,
1980,857731,-5.0194399999999995,857731,51,857731,62255,857730,
1936,857756,-4.94256,857756,51,857756,62280,857750,
2027,857775,-4.94256,857775,52,857775,62326,857769,
2180,857781,-4.94256,857781,51,857781,62352,857779,
2230,857799,-5.0194399999999995,857799,51,857799,62496,857799,
2356,857801,-4.94256,857801,51,857801,62496,857799,
2213,857807,-4.94256,857807,52,857807,62476,857807,
2052,857829,-4.865679999999999,857829,50,857829,62540,857829,
2056,857847,-4.865679999999999,857847,51,857847,62561,857847,
1955,857855,-4.94256,857855,51,857855,62552,857849,
2115,857859,-4.94256,857859,51,857859,62565,857859,
2172,857861,-4.94256,857861,52,857861,62565,857859,
2121,857865,-4.94256,857865,51,857865,62565,857859,
2077,857877,-4.865679999999999,857877,51,857877,62551,857877,
2143,857879,-4.94256,857879,51,857879,62540,857879,
2043,857901,-4.865679999999999,857901,51,857901,62494,857902,
2197,857957,-4.94256,857957,51,857957,62497,857956,
2027,857971,-4.94256,857971,52,857971,62555,857972,
2226,857981,-4.94256,857981,51,857981,62553,857981,
2126,857987,-4.94256,857987,51,857987,62553,857981,
2032,857989,-4.865679999999999,857989,51,857989,62560,857989,
2008,858037,-4.865679999999999,858037,51,858037,62720,858031,
2060,858079,-4.865679999999999,858079,50,858079,62823,858079,
2193,858117,-4.94256,858117,51,858117,62851,858111,
2261,858119,-4.865679999999999,858119,51,858119,62896,858119,
2300,858121,-4.865679999999999,858121,51,858121,62881,858121,
2774,858139,-4.865679999999999,858139,52,858139,62927,858139,
1096,858161,-4.865679999999999,858161,51,858161,62939,858161,
2053,858189,-5.0194399999999995,858189,52,858189,62941,858189,
2040,858191,-4.865679999999999,858191,51,858191,62967,858191,
2195,858197,-4.94256,858197,50,858197,62967,858191,
2284,858199,-4.7888,858199,51,858199,62966,858200,
1946,858211,-5.0194399999999995,858211,51,858211,62965,858209,
1950,858271,-4.865679999999999,858271,51,858271,62994,858269,
2060,858291,-4.865679999999999,858291,51,858291,62963,858289,
1927,858311,-4.865679999999999,858311,51,858311,62972,858309,
2113,858317,-4.94256,858317,51,858317,62976,858317,
2264,858319,-5.48072,858319,51,858319,62982,858319,
2281,858327,-4.94256,858327,51,858327,62959,858327,
2139,858329,-4.865679999999999,858329,51,858329,62950,858329,
2097,858345,-4.865679999999999,858345,51,858345,62899,858339,
2141,858349,-4.94256,858349,52,858349,62807,858349,
2249,858369,-4.865679999999999,858369,51,858369,62502,858367,
2081,858389,-4.94256,858389,51,858389,62225,858389,
1984,858395,-4.94256,858395,51,858395,62134,858392,
1970,858409,-4.94256,858409,51,858409,62140,858409,
1809,858449,-4.94256,858449,51,858449,62084,858449,
2203,858459,-4.94256,858459,52,858459,62090,858459,
2244,858461,-4.94256,858461,52,858461,62118,858461,
2024,858479,-4.94256,858479,51,858479,62157,858479,
2093,858481,-4.94256,858481,51,858481,62174,858481,
2085,858487,-4.865679999999999,858487,51,858487,62174,858481,
2278,858501,-4.865679999999999,858501,52,858501,62213,858501,
1938,858531,-4.94256,858531,52,858531,62250,858532,
1930,858591,-4.7888,858591,50,858591,62446,858591,
1816,858597,-4.7888,858597,51,858597,62446,858591,
1928,858599,-4.7888,858599,50,858599,62464,858599,
2001,858621,-4.7888,858621,51,858621,62415,858621,
2024,858667,-4.94256,858667,51,858667,62360,858668,
2141,858686,-4.865679999999999,858686,51,858686,62346,858680,
2098,858691,-4.94256,858691,51,858691,62360,858690,
2089,858696,-4.94256,858696,51,858696,62360,858690,
2106,858697,-4.865679999999999,858697,52,858697,62360,858690,
2146,858699,-4.94256,858699,51,858699,62341,858699,
2112,858707,-4.865679999999999,858707,51,858707,62365,858707,
2091,858719,-4.94256,858719,51,858719,62434,858719,
2380,858725,-4.94256,858725,51,858725,62434,858719,
2360,858727,-4.94256,858727,50,858727,62411,858727,
2052,858779,-4.865679999999999,858779,51,858779,62504,858779,
2109,858797,-4.865679999999999,858797,51,858797,62517,858797,
2112,858819,-5.0194399999999995,858819,50,858819,62591,858819,
2116,858821,-4.865679999999999,858821,51,858821,62591,858819,
2036,858825,-4.865679999999999,858825,51,858825,62591,858819,
1963,858829,-4.94256,858829,51,858829,62604,858829,
2027,858849,-4.94256,858849,51,858849,62680,858849,
1817,858891,-4.94256,858891,51,858891,62722,858892,
1326,858907,-4.865679999999999,858907,50,858907,62741,858902,
1354,858909,-5.09632,858909,51,858909,62720,858909,
2052,858949,-4.865679999999999,858949,52,858949,62781,858949,
2044,858951,-4.865679999999999,858951,51,858951,62791,858951,
2108,858957,-4.94256,858957,51,858957,62791,858951,
2154,858959,-4.865679999999999,858959,51,858959,62790,858959,
2137,858971,-4.865679999999999,858971,49,858971,62821,858971,
2161,858999,-4.94256,858999,51,858999,62859,858999,
2137,859031,-4.94256,859031,51,859031,62834,859031,
2062,859037,-4.865679999999999,859037,51,859037,62834,859031,
2028,859071,-4.94256,859071,51,859071,62857,859071,
2198,859087,-4.94256,859087,51,859087,62789,859081,
2151,859097,-4.94256,859097,52,859097,62641,859091,
2246,859099,-4.865679999999999,859099,52,859099,62575,859099,
2287,859101,-4.94256,859101,52,859101,62483,859101,
2015,859147,-4.865679999999999,859147,51,859147,62050,859147,
2092,859199,-4.865679999999999,859199,51,859199,62042,859199,
2160,859201,-4.7888,859201,50,859201,62042,859199,
2042,859207,-5.1732,859207,51,859207,62001,859207,
1970,859209,-4.865679999999999,859209,51,859209,62002,859209,
1922,859211,-4.865679999999999,859211,51,859211,62002,859209,
1918,859215,-4.94256,859215,52,859215,62002,859209,
1944,859229,-5.0194399999999995,859229,51,859229,62024,859229,
2011,859235,-4.94256,859235,52,859235,62024,859229,
2104,859239,-4.94256,859239,51,859239,62058,859239,
1901,859257,-4.865679999999999,859257,50,859257,62070,859257,
2045,859275,-4.94256,859275,52,859275,62114,859269,
2064,859279,-4.94256,859279,51,859279,62166,859279,
2059,859291,-4.94256,859291,51,859291,62205,859292,
1806,859329,-4.94256,859329,51,859329,62359,859329,
1841,859331,-5.09632,859331,51,859331,62359,859329,
2027,859335,-4.94256,859335,51,859335,62293,859336,
2147,859337,-4.94256,859337,51,859337,62293,859336,
2251,859339,-4.865679999999999,859339,51,859339,62321,859339,
1969,859351,-4.865679999999999,859351,51,859351,62340,859352,
2020,859359,-4.865679999999999,859359,51,859359,62338,859359,
2069,859411,-4.94256,859411,51,859411,62280,859411,
2107,859417,-4.94256,859417,51,859417,62280,859411,
2145,859419,-4.94256,859419,51,859419,62266,859419,
2102,859439,-4.865679999999999,859439,51,859439,62282,859439,
2110,859459,-4.94256,859459,52,859459,62306,859459,
2142,859461,-4.94256,859461,51,859461,62302,859461,
2108,859467,-4.94256,859467,52,859467,62302,859461,
2065,859469,-4.94256,859469,52,859469,62301,859469,
2160,859487,-4.94256,859487,52,859487,62317,859481,
2133,859489,-4.94256,859489,51,859489,62286,859489,
2100,859527,-4.865679999999999,859527,51,859527,62407,859527,
2032,859541,-4.94256,859541,52,859541,62455,859540,
2105,859581,-4.94256,859581,51,859581,62458,859580,
2029,859587,-4.94256,859587,51,859587,62534,859588,
2005,859589,-4.94256,859589,50,859589,62483,859590,
2100,859596,-5.0194399999999995,859596,50,859596,62483,859590,
2244,859606,-4.7888,859606,51,859606,62513,859600,
2200,859607,-4.865679999999999,859607,52,859607,62511,859608,
2605,859631,-4.94256,859631,51,859631,62557,859630,
1937,859651,-4.94256,859651,51,859651,62604,859650,
1604,859669,-4.865679999999999,859669,50,859669,62597,859669,
1982,859715,-4.865679999999999,859715,52,859715,62624,859709,
2065,859717,-4.865679999999999,859717,52,859717,62622,859717,
2189,859719,-4.94256,859719,52,859719,62628,859719,
2034,859737,-4.94256,859737,51,859737,62646,859737,
1988,859757,-4.865679999999999,859757,50,859757,62692,859757,
2028,859831,-4.94256,859831,50,859831,62733,859831,
2325,859839,-4.94256,859839,51,859839,62687,859839,
2398,859841,-4.94256,859841,52,859841,62643,859841,
2148,859851,-4.94256,859851,51,859851,62509,859851,
2153,859857,-4.94256,859857,51,859857,62509,859851,
2178,859859,-4.94256,859859,51,859859,62420,859859,
2008,859907,-5.0194399999999995,859907,51,859907,61995,859901,
2007,859967,-4.865679999999999,859967,52,859967,61932,859961,
2002,859969,-4.94256,859969,52,859969,61918,859969,
2024,859981,-4.865679999999999,859981,51,859981,61963,859981,
2180,860019,-4.94256,860019,52,860019,62009,860019,
2026,860037,-4.94256,860037,52,860037,62049,860031,
2031,860051,-4.865679999999999,860051,52,860051,62121,860050,
2100,860055,-4.865679999999999,860055,51,860055,62121,860050,
2156,860057,-4.865679999999999,860057,50,860057,62130,860058,
2218,860059,-4.7888,860059,50,860059,62129,860060,
2138,860101,-4.94256,860101,51,860101,62196,860099,
2008,860105,-4.865679999999999,860105,51,860105,62196,860099,
1922,860107,-4.94256,860107,51,860107,62270,860107,
1867,860109,-4.865679999999999,860109,51,860109,62269,860109,
1859,860111,-4.865679999999999,860111,51,860111,62269,860109,
2233,860121,-4.94256,860121,51,860121,62255,860119,
1993,860131,-4.94256,860131,51,860131,62209,860129,
2086,860157,-4.94256,860157,49,860157,62169,860157,
1977,860175,-4.94256,860175,51,860175,62168,860169,
2031,860179,-4.865679999999999,860179,51,860179,62170,860179,
2034,860241,-4.865679999999999,860241,51,860241,62238,860242,
1913,860249,-4.94256,860249,52,860249,62280,860249,
1922,860251,-4.94256,860251,51,860251,62280,860249,
2048,860255,-4.865679999999999,860255,51,860255,62240,860256,
1988,860269,-4.94256,860269,51,860269,62322,860267,
1961,860271,-5.0194399999999995,860271,51,860271,62342,860272,
2287,860301,-4.94256,860301,51,860301,62382,860301,
2145,860321,-4.865679999999999,860321,51,860321,62473,860321,
2133,860327,-4.94256,860327,51,860327,62473,860321,
2052,860329,-5.0194399999999995,860329,51,860329,62493,860329,
1994,860367,-4.94256,860367,50,860367,62609,860361,
1808,860371,-4.711919999999999,860371,51,860371,62633,860371,
1832,860377,-4.94256,860377,50,860377,62633,860371,
1950,860379,-4.865679999999999,860379,51,860379,62660,860379,
1993,860391,-4.94256,860391,52,860391,62669,860391,
2000,860427,-4.94256,860427,50,860427,62652,860421,
3017,860461,-4.94256,860461,51,860461,62723,860461,
2537,860469,-4.865679999999999,860469,51,860469,62733,860469,
2280,860471,-4.94256,860471,51,860471,62714,860471,
2153,860519,-4.865679999999999,860519,51,860519,62765,860520,
2189,860521,-4.94256,860521,50,860521,62765,860520,
2147,860525,-4.94256,860525,51,860525,62765,860520,
1945,860529,-4.94256,860529,51,860529,62769,860529,
1878,860531,-4.94256,860531,51,860531,62769,860529,
2075,860537,-5.0194399999999995,860537,51,860537,62820,860537,
2081,860547,-4.865679999999999,860547,50,860547,62828,860547,
2033,860549,-4.94256,860549,51,860549,62781,860549,
2025,860551,-4.865679999999999,860551,50,860551,62781,860549,
2132,860595,-4.94256,860595,51,860595,62892,860589,
2186,860599,-4.94256,860599,51,860599,62923,860599,
2010,860611,-4.94256,860611,51,860611,62932,860609,
2057,860615,-4.94256,860615,52,860615,62932,860609,
2113,860617,-4.865679999999999,860617,51,860617,62942,860617,
2186,860619,-4.94256,860619,51,860619,62957,860619,
2224,860641,-4.865679999999999,860641,51,860641,62981,860639,
2327,860661,-4.865679999999999,860661,51,860661,62967,860659,
2059,860667,-4.94256,860667,51,860667,62942,860667,
1990,860669,-4.865679999999999,860669,51,860669,62896,860669,
2349,860681,-4.94256,860681,51,860681,62632,860682,
2348,860685,-4.865679999999999,860685,52,860685,62632,860682,
2231,860689,-4.94256,860689,52,860689,62520,860687,
2121,860719,-4.865679999999999,860719,51,860719,62043,860717,
1867,860747,-4.865679999999999,860747,50,860747,61916,860742,
1826,860789,-4.865679999999999,860789,51,860789,61946,860789,
1961,860811,-4.94256,860811,52,860811,62014,860811,
2048,860817,-4.865679999999999,860817,52,860817,62014,860811,
2144,860821,-4.94256,860821,51,860821,62030,860821,
2136,860827,-4.865679999999999,860827,51,860827,62030,860821,
2118,860829,-4.865679999999999,860829,51,860829,62044,860829,
1979,860841,-4.94256,860841,51,860841,62055,860841,
2017,860847,-4.865679999999999,860847,51,860847,62055,860841,
2026,860851,-4.94256,860851,51,860851,62096,860851,
2150,860887,-4.865679999999999,860887,51,860887,62142,860881,
2060,860889,-4.865679999999999,860889,51,860889,62151,860889,
2129,860937,-4.94256,860937,51,860937,62289,860931,
2208,860961,-4.865679999999999,860961,51,860961,62269,860961,
2042,860969,-4.865679999999999,860969,51,860969,62242,860969,
1977,860971,-4.865679999999999,860971,50,860971,62262,860971,
2010,860977,-4.865679999999999,860977,50,860977,62262,860971,
2163,860999,-4.865679999999999,860999,52,860999,62234,860999,
1974,861029,-4.94256,861029,51,861029,62256,861029,
2161,861065,-4.865679999999999,861065,51,861065,62235,861059,
2100,861067,-4.94256,861067,51,861067,62239,861067,
2196,861085,-4.865679999999999,861085,51,861085,62267,861079,
1980,861111,-4.94256,861111,51,861111,62373,861109,
1972,861115,-4.94256,861115,52,861115,62373,861109,
2157,861119,-4.865679999999999,861119,51,861119,62378,861119,
2212,861121,-4.94256,861121,51,861121,62378,861119,
2133,861125,-4.94256,861125,51,861125,62378,861119,
2062,861127,-5.0194399999999995,861127,51,861127,62375,861127,
1980,861147,-4.865679999999999,861147,51,861147,62444,861142,
1933,861149,-4.94256,861149,51,861149,62484,861149,
1878,861171,-4.865679999999999,861171,51,861171,62532,861169,
2278,861179,-4.94256,861179,51,861179,62525,861179,
2028,861205,-4.94256,861205,51,861205,62562,861206,
1181,861271,-4.865679999999999,861271,51,861271,62650,861271,
1211,861279,-4.865679999999999,861279,51,861279,62646,861279,
1840,861287,-4.94256,861287,51,861287,62645,861281,
1915,861289,-4.94256,861289,51,861289,62659,861289,
2003,861309,-4.94256,861309,51,861309,62675,861309,
1941,861311,-4.94256,861311,51,861311,62663,861311,
1981,861317,-4.94256,861317,51,861317,62663,861311,
2098,861371,-5.0194399999999995,861371,50,861371,62694,861371,
2103,861377,-4.94256,861377,51,861377,62694,861371,
2094,861389,-4.865679999999999,861389,51,861389,62763,861389,
2318,861437,-4.865679999999999,861437,51,861437,62856,861431,
2240,861441,-4.94256,861441,52,861441,62867,861440,
2023,861445,-4.865679999999999,861445,51,861445,62867,861440,
1942,861447,-4.865679999999999,861447,51,861447,62839,861448,
1917,861449,-4.94256,861449,51,861449,62819,861450,
1952,861451,-5.0194399999999995,861451,51,861451,62819,861450,
2180,861469,-4.48128,861469,50,861469,62599,861470,
2248,861477,-4.865679999999999,861477,51,861477,62599,861470,
1876,861529,-4.94256,861529,51,861529,61940,861529,
2033,861587,-4.865679999999999,861587,51,861587,61932,861587,
1976,861595,-4.865679999999999,861595,50,861595,61938,861589,
1993,861597,-4.94256,861597,50,861597,61961,861597,
2024,861599,-4.94256,861599,51,861599,61968,861599,
2129,861619,-4.865679999999999,861619,52,861619,62019,861617,
1985,861647,-4.94256,861647,50,861647,61987,861642,
2065,861687,-4.94256,861687,51,861687,62156,861681,
2036,861731,-4.94256,861731,51,861731,62299,861731,
2121,861737,-4.865679999999999,861737,52,861737,62299,861731,
2182,861739,-4.865679999999999,861739,52,861739,62289,861739,
2219,861741,-4.865679999999999,861741,50,861741,62298,861741,
1965,861751,-4.94256,861751,51,861751,62287,861751,
2118,861759,-4.94256,861759,51,861759,62285,861759,
2213,861781,-4.94256,861781,51,861781,62243,861781,
2192,861801,-4.865679999999999,861801,51,861801,62186,861801,
1993,861849,-4.94256,861849,51,861849,62222,861849,
1965,861871,-4.94256,861871,51,861871,62255,861871,
2145,861877,-4.94256,861877,51,861877,62255,861871,
2161,861891,-4.865679999999999,861891,52,861891,62320,861891,
1885,861949,-4.7888,861949,51,861949,62404,861949,
2190,861961,-4.865679999999999,861961,51,861961,62518,861959,
2027,861965,-4.94256,861965,52,861965,62518,861959,
1960,862011,-4.865679999999999,862011,50,862011,62537,862009,
2100,862015,-4.865679999999999,862015,51,862015,62537,862009,
2201,862019,-4.865679999999999,862019,51,862019,62576,862019,
2166,862021,-4.865679999999999,862021,51,862021,62576,862019,
2025,862025,-4.94256,862025,51,862025,62576,862019,
2776,862041,-4.865679999999999,862041,51,862041,62620,862039,
2827,862045,-4.94256,862045,51,862045,62620,862039,
2796,862047,-4.865679999999999,862047,52,862047,62590,862047,
1823,862091,-5.0194399999999995,862091,51,862091,62596,862092,
1985,862095,-4.865679999999999,862095,50,862095,62596,862092,
2141,862155,-4.94256,862155,51,862155,62739,862152,
2182,862159,-4.94256,862159,51,862159,62766,862159,
2166,862161,-4.94256,862161,50,862161,62762,862162,
2061,862165,-4.865679999999999,862165,51,862165,62762,862162,
2255,862179,-4.865679999999999,862179,51,862179,62813,862179,
2268,862181,-4.94256,862181,51,862181,62824,862182,
2084,862187,-4.865679999999999,862187,51,862187,62804,862187,
2060,862211,-4.94256,862211,51,862211,62859,862211,
2273,862237,-4.94256,862237,51,862237,62867,862231,
2394,862241,-4.865679999999999,862241,52,862241,62863,862241,
2179,862247,-4.94256,862247,51,862247,62863,862241,
2246,862286,-4.865679999999999,862286,52,862286,62215,862280,
2112,862301,-4.94256,862301,51,862301,62018,862300,
1877,862311,-4.865679999999999,862311,51,862311,61967,862310,
2004,862316,-4.94256,862316,51,862316,61967,862310,
2034,862317,-4.865679999999999,862317,51,862317,61977,862318,
1921,862336,-4.865679999999999,862336,51,862336,61885,862330,
1912,862359,-4.865679999999999,862359,51,862359,61893,862360,
1908,862396,-4.865679999999999,862396,51,862396,61928,862390,
1967,862397,-4.94256,862397,51,862397,61931,862398,
2057,862399,-5.0194399999999995,862399,52,862399,61960,862400,
1910,862427,-4.865679999999999,862427,51,862427,62006,862420,
1890,862429,-5.0194399999999995,862429,51,862429,62006,862429,
2246,862441,-4.94256,862441,50,862441,62025,862439,
1941,862449,-4.94256,862449,51,862449,62068,862449,
1927,862471,-4.865679999999999,862471,51,862471,62120,862469,
1956,862491,-4.94256,862491,51,862491,62191,862489,
2180,862519,-4.865679999999999,862519,51,862519,62292,862520,
2184,862521,-4.94256,862521,51,862521,62292,862520,
1979,862569,-4.94256,862569,51,862569,62275,862570,
2075,862591,-4.94256,862591,51,862591,62273,862590,
2209,862639,-4.865679999999999,862639,51,862639,62236,862640,
2024,862686,-5.0194399999999995,862686,52,862686,62353,862686,
1985,862689,-5.0194399999999995,862689,51,862689,62334,862690,
2006,862691,-4.94256,862691,52,862691,62334,862690,
2013,862747,-4.865679999999999,862747,51,862747,62510,862741,
2035,862767,-4.94256,862767,51,862767,62574,862761,
2030,862781,-4.94256,862781,51,862781,62589,862781,
1881,862807,-4.865679999999999,862807,51,862807,62613,862801,
1858,862811,-4.7888,862811,51,862811,62618,862811,
2164,862817,-4.94256,862817,51,862817,62618,862811,
2017,862831,-4.94256,862831,51,862831,62627,862831,
2261,862857,-4.94256,862857,51,862857,62604,862857,
2452,862885,-4.865679999999999,862885,51,862885,62666,862879,
1184,862897,-4.94256,862897,50,862897,62650,862897,
1961,862917,-4.94256,862917,52,862917,62643,862917,
2027,862931,-5.0194399999999995,862931,51,862931,62705,862929,
2144,862937,-4.865679999999999,862937,51,862937,62653,862937,
2177,862939,-4.94256,862939,51,862939,62663,862939,
2148,862941,-4.865679999999999,862941,51,862941,62663,862939,
2010,862945,-4.94256,862945,51,862945,62663,862939,
2268,862959,-4.7888,862959,51,862959,62707,862959,
1950,862989,-4.865679999999999,862989,51,862989,62809,862989,
2201,863021,-4.94256,863021,52,863021,62890,863022,
2090,863025,-5.0194399999999995,863025,51,863025,62890,863022,
2050,863029,-4.865679999999999,863029,51,863029,62938,863029,
2084,863031,-4.865679999999999,863031,51,863031,62865,863032,
1948,863049,-4.865679999999999,863049,52,863049,62973,863049,
2011,863051,-4.865679999999999,863051,51,863051,62973,863049,
2097,863071,-5.0194399999999995,863071,51,863071,62974,863072,
2285,863117,-4.94256,863117,51,863117,62228,863112,
2322,863119,-4.94256,863119,53,863119,62212,863119,
2034,863131,-4.94256,863131,51,863131,62056,863131,
1915,863141,-4.94256,863141,51,863141,62016,863141,
1837,863147,-4.865679999999999,863147,50,863147,62016,863141,
1844,863149,-4.865679999999999,863149,51,863149,61987,863149,
1896,863161,-4.94256,863161,50,863161,61964,863161,
1718,863169,-4.94256,863169,51,863169,61965,863169,
1840,863191,-4.94256,863191,50,863191,61949,863191,
2012,863221,-4.865679999999999,863221,51,863221,61978,863221,
2061,863227,-4.865679999999999,863227,52,863227,61978,863221,
2095,863231,-4.94256,863231,51,863231,61996,863231,
2073,863237,-4.865679999999999,863237,51,863237,61996,863231,
2055,863239,-4.865679999999999,863239,51,863239,62020,863239,
2190,863279,-4.94256,863279,52,863279,62104,863279,
2176,863281,-4.865679999999999,863281,52,863281,62083,863281,
1993,863287,-4.7888,863287,51,863287,62083,863281,
2128,863301,-4.94256,863301,51,863301,62197,863301,
1940,863307,-4.865679999999999,863307,51,863307,62197,863301,
2139,863326,-4.865679999999999,863326,51,863326,62258,863320,
2115,863341,-5.0194399999999995,863341,51,863341,62325,863340,
2172,863357,-4.865679999999999,863357,51,863357,62333,863357,
2072,863371,-4.865679999999999,863371,51,863371,62349,863369,
2020,863389,-4.865679999999999,863389,51,863389,62316,863389,
2112,863395,-4.865679999999999,863395,51,863395,62316,863389,
2134,863397,-4.865679999999999,863397,51,863397,62280,863397,
2136,863399,-4.94256,863399,50,863399,62288,863399,
2025,863415,-4.865679999999999,863415,51,863415,62260,863409,
2083,863455,-4.865679999999999,863455,51,863455,62273,863449,
2004,863469,-4.865679999999999,863469,51,863469,62282,863469,
2042,863471,-4.865679999999999,863471,51,863471,62282,863469,
2205,863475,-4.865679999999999,863475,51,863475,62282,863469,
2109,863515,-4.865679999999999,863515,52,863515,62364,863516,
2285,863519,-4.865679999999999,863519,52,863519,62414,863519,
2333,863521,-4.865679999999999,863521,52,863521,62367,863522,
2214,863525,-4.94256,863525,51,863525,62367,863522,
2080,863527,-4.865679999999999,863527,52,863527,62450,863527,
1949,863529,-4.94256,863529,51,863529,62450,863527,
2170,863545,-4.865679999999999,863545,51,863545,62474,863546,
2118,863547,-4.865679999999999,863547,51,863547,62474,863546,
2076,863549,-4.94256,863549,50,863549,62470,863549,
2057,863567,-4.865679999999999,863567,51,863567,62521,863562,
2108,863601,-4.94256,863601,51,863601,62661,863601,
1940,863607,-5.0194399999999995,863607,52,863607,62661,863601,
2086,863641,-4.865679999999999,863641,51,863641,62756,863641,
2072,863649,-4.94256,863649,51,863649,62777,863649,
2096,863651,-4.865679999999999,863651,51,863651,62771,863651,
2129,863661,-4.94256,863661,51,863661,62793,863661,
1909,863669,-4.865679999999999,863669,52,863669,62779,863669,
2692,863707,-4.865679999999999,863707,51,863707,62767,863701,
1689,863721,-4.94256,863721,51,863721,62807,863721,
981,863727,-4.94256,863727,51,863727,62807,863721,
982,863729,-4.865679999999999,863729,51,863729,62825,863729,
1872,863771,-5.0194399999999995,863771,51,863771,62878,863771,
2211,863781,-4.865679999999999,863781,52,863781,62899,863780,
2061,863785,-4.94256,863785,51,863785,62899,863780,
2181,863801,-4.94256,863801,51,863801,62905,863800,
2108,863807,-4.865679999999999,863807,52,863807,62918,863808,
1976,863825,-4.865679999999999,863825,51,863825,62926,863819,
2102,863845,-4.865679999999999,863845,52,863845,63009,863839,
1864,863849,-5.0194399999999995,863849,51,863849,63030,863849,
2258,863895,-4.94256,863895,52,863895,63019,863889,
2262,863897,-4.94256,863897,52,863897,63025,863897,
2253,863901,-4.865679999999999,863901,51,863901,62998,863899,
2154,863905,-4.48128,863905,51,863905,62998,863899,
2117,863907,-4.94256,863907,52,863907,63013,863907,
2013,863925,-4.7888,863925,52,863925,62892,863919,
2368,863941,-4.94256,863941,51,863941,62398,863939,
1966,863971,-4.865679999999999,863971,51,863971,61984,863972,
1979,863977,-4.94256,863977,51,863977,61984,863972,
1970,863979,-4.94256,863979,52,863979,62009,863979,
1888,863997,-4.94256,863997,51,863997,61918,863992,
1891,863999,-4.865679999999999,863999,51,863999,61978,863999,
1830,864031,-4.94256,864031,51,864031,61984,864031,
1988,864047,-4.865679999999999,864047,51,864047,62007,864041,
1924,864049,-4.865679999999999,864049,51,864049,62024,864049,
2076,864067,-4.865679999999999,864067,51,864067,62061,864061,
2057,864089,-4.7888,864089,51,864089,62115,864089,
2084,864091,-4.94256,864091,51,864091,62118,864091,
2107,864099,-5.0194399999999995,864099,51,864099,62136,864099,
2076,864101,-4.94256,864101,51,864101,62129,864101,
1962,864107,-4.7888,864107,51,864107,62129,864101,
1946,864109,-4.94256,864109,52,864109,62156,864109,
1887,864129,-4.94256,864129,52,864129,62187,864129,
1978,864151,-4.94256,864151,51,864151,62296,864151,
2009,864171,-4.94256,864171,51,864171,62375,864171,
2208,864197,-4.865679999999999,864197,51,864197,62415,864191,
1995,864231,-4.865679999999999,864231,51,864231,62403,864231,
2254,864241,-4.94256,864241,51,864241,62397,864240,
2164,864245,-4.94256,864245,52,864245,62397,864240,
2088,864247,-4.865679999999999,864247,51,864247,62379,864248,
2013,864249,-4.94256,864249,50,864249,62359,864250,
2076,864266,-4.94256,864266,51,864266,62350,864260,
2090,864267,-4.865679999999999,864267,51,864267,62341,864268,
2112,864269,-4.94256,864269,51,864269,62350,864270,
1915,864287,-4.94256,864287,50,864287,62345,864287,
1914,864309,-4.94256,864309,51,864309,62411,864309,
2164,864321,-4.94256,864321,51,864321,62402,864319,
2275,864361,-4.865679999999999,864361,52,864361,62497,864359,
2257,864365,-4.865679999999999,864365,51,864365,62497,864359,
2164,864369,-4.865679999999999,864369,51,864369,62534,864369,
1951,864409,-4.865679999999999,864409,51,864409,62663,864409,
1998,864411,-4.94256,864411,51,864411,62671,864412,
1769,864429,-5.0194399999999995,864429,51,864429,62760,864429,
1878,864435,-4.94256,864435,51,864435,62742,864436,
1938,864467,-5.0194399999999995,864467,51,864467,62848,864467,
2112,864481,-4.94256,864481,51,864481,62833,864481,
1952,864489,-4.94256,864489,52,864489,62842,864489,
1987,864491,-4.94256,864491,50,864491,62858,864491,
2176,864501,-4.865679999999999,864501,52,864501,62877,864501,
2211,864511,-4.94256,864511,51,864511,62877,864501,
2825,864531,-4.865679999999999,864531,51,864531,62907,864532,
977,864551,-4.94256,864551,51,864551,62959,864551,
2171,864577,-6.78768,864577,52,864577,62960,864561,
2176,864601,-6.09576,864601,52,864601,62986,864601,
1982,864607,-4.0968800000000005,864607,51,864607,62986,864601,
2081,864627,-3.2512000000000008,864627,53,864627,63005,864621,
2052,864629,2.361040000000001,864629,53,864629,63011,864629,
2126,864641,-1.8673599999999997,864641,51,864641,63029,864641,
2144,864681,-0.2528799999999993,864681,52,864681,63121,864681,
2040,864691,3.052959999999999,864691,52,864691,63105,864691,
2328,864701,2.9760799999999996,864701,52,864701,63098,864700,
2131,864705,4.206160000000001,864705,52,864705,63098,864700,
2033,864707,-3.9431200000000004,864707,52,864707,63086,864707,
1992,864711,0.8234399999999997,864711,52,864711,63144,864709,
2316,864721,-0.6372800000000005,864721,52,864721,63147,864719,
2076,864729,2.0535200000000007,864729,51,864729,63120,864729,
2129,864749,2.361040000000001,864749,52,864749,62888,864749,
2165,864765,2.361040000000001,864765,53,864765,62589,864759,
2226,864779,3.052959999999999,864779,51,864779,62220,864779,
2066,864799,3.4373600000000017,864799,52,864799,62055,864799,
2053,864801,3.4373600000000017,864801,51,864801,62055,864799,
1706,864809,4.744320000000002,864809,51,864809,62023,864809,
1715,864811,2.9760799999999996,864811,50,864811,62023,864809,
1853,864815,0.9771999999999998,864815,51,864815,62023,864809,
1922,864817,0.9003200000000007,864817,51,864817,62047,864817,
1945,864819,4.667439999999999,864819,51,864819,62018,864819,
1953,864837,5.4362400000000015,864837,52,864837,62044,864837,
2018,864839,1.8228799999999996,864839,51,864839,62049,864839,
1865,864851,4.513680000000001,864851,52,864851,62044,864849,
1871,864867,-1.6367200000000004,864867,52,864867,62066,864867,
1964,864889,2.43792,864889,51,864889,62154,864889,
1963,864907,1.7460000000000004,864907,51,864907,62108,864902,
1898,864911,2.59168,864911,52,864911,62132,864912,
2016,864915,4.052399999999999,864915,52,864915,62132,864912,
1953,864951,3.59112,864951,52,864951,62289,864952,
2141,864957,4.667439999999999,864957,51,864957,62289,864952,
2149,864961,5.128720000000001,864961,51,864961,62334,864961,
2114,864981,2.59168,864981,52,864981,62436,864981,
1939,864987,0.6696799999999996,864987,51,864987,62436,864981,
2158,864999,2.8223200000000013,864999,52,864999,62485,864999,
1981,865029,1.7460000000000004,865029,52,865029,62527,865029,
2205,865041,1.9766399999999997,865041,52,865041,62493,865041,
2027,865061,2.0535200000000007,865061,51,865061,62473,865061,
2004,865071,2.668560000000001,865071,51,865071,62416,865071,
1978,865089,3.821760000000001,865089,52,865089,62396,865089,
2038,865091,0.9771999999999998,865091,52,865091,62382,865091,
1877,865111,0.5928000000000004,865111,51,865111,62436,865111,
2004,865131,4.89808,865131,51,865131,62475,865131,
2108,865137,3.2836,865137,51,865137,62475,865131,
2056,865171,2.514800000000001,865171,52,865171,62596,865170,
2085,865175,-2.097999999999999,865175,52,865175,62596,865170,
2214,865195,3.744880000000002,865195,53,865195,62649,865189,
2257,865217,1.4384800000000002,865217,51,865217,62740,865217,
2317,865221,1.5922400000000003,865221,51,865221,62724,865219,
2218,865225,3.1298400000000015,865225,52,865225,62724,865219,
2085,865255,4.744320000000002,865255,52,865255,62813,865249,
2172,865259,3.6679999999999993,865259,52,865259,62800,865259,
2142,865261,1.5153600000000012,865261,51,865261,62800,865259,
1982,865267,1.0540800000000008,865267,51,865267,62819,865267,
1973,865269,4.513680000000001,865269,52,865269,62807,865269,
1886,865287,4.667439999999999,865287,51,865287,62847,865287,
1856,865289,2.28416,865289,51,865289,62867,865289,
2166,865315,2.9760799999999996,865315,52,865315,62908,865309,
1966,865331,3.2067200000000007,865331,51,865331,62945,865329,
2119,865335,1.28472,865335,52,865335,62945,865329,
2146,865365,3.8986400000000003,865365,52,865365,62999,865366,
2214,865367,1.8997600000000006,865367,51,865367,62999,865366,
2350,865369,1.207840000000001,865369,52,865369,63001,865369,
2522,865371,5.359359999999999,865371,52,865371,62957,865372,
2876,865387,-1.098559999999999,865387,53,865387,63038,865382,
1041,865409,2.59168,865409,51,865409,63063,865409,
1819,865417,5.974399999999999,865417,51,865417,63064,865412,
2114,865437,3.59112,865437,52,865437,63087,865432,
2182,865441,1.7460000000000004,865441,52,865441,63100,865442,
2014,865447,1.207840000000001,865447,51,865447,63110,865447,
2167,865461,0.9771999999999998,865461,52,865461,63111,865461,
2004,865469,3.59112,865469,52,865469,63116,865469,
2161,865521,2.361040000000001,865521,51,865521,63139,865522,
2043,865525,-0.17600000000000016,865525,52,865525,63139,865522,
2054,865531,4.89808,865531,51,865531,63159,865532,
2176,865535,2.668560000000001,865535,52,865535,63159,865532,
2232,865537,5.28248,865537,51,865537,63157,865537,
2250,865541,5.513120000000001,865541,51,865541,63138,865540,
2193,865561,3.744880000000002,865561,51,865561,63193,865560,
2036,865567,0.9771999999999998,865567,51,865567,63191,865568,
2037,865569,6.2819199999999995,865569,51,865569,63208,865570,
2076,865571,2.8223200000000013,865571,51,865571,63208,865570,
2216,865576,2.8992000000000004,865576,52,865576,63208,865570,
2147,865591,3.052959999999999,865591,51,865591,63163,865590,
2205,865596,1.9766399999999997,865596,52,865596,63163,865590,
2309,865621,2.28416,865621,52,865621,62575,865620,
2104,865626,6.051280000000002,865626,52,865626,62575,865620,
1801,865666,2.9760799999999996,865666,52,865666,62140,865660,
1681,865669,4.436800000000002,865669,51,865669,62128,865670,
1840,865676,4.359919999999999,865676,51,865676,62128,865670,
2125,865717,3.59112,865717,51,865717,62173,865710,
1944,865725,4.744320000000002,865725,52,865725,62182,865719,
1962,865767,5.743760000000002,865767,51,865767,62237,865767,
2104,865775,4.436800000000002,865775,52,865775,62262,865769,
2122,865779,0.5159199999999995,865779,51,865779,62276,865779,
2073,865781,6.358800000000002,865781,51,865781,62276,865779,
1981,865785,5.666879999999999,865785,52,865785,62276,865779,
1998,865787,2.59168,865787,51,865787,62279,865787,
2001,865805,4.821200000000001,865805,51,865805,62345,865799,
2042,865811,-1.4060799999999993,865811,51,865811,62384,865812,
2165,865815,2.8223200000000013,865815,51,865815,62384,865812,
2177,865819,2.8992000000000004,865819,52,865819,62443,865817,
2187,865839,1.8997600000000006,865839,52,865839,62510,865839,
1994,865845,3.4373600000000017,865845,51,865845,62471,865842,
1892,865849,5.28248,865849,52,865849,62560,865849,
1907,865851,3.8986400000000003,865851,51,865851,62515,865852,
2138,865857,2.8223200000000013,865857,51,865857,62586,865857,
2171,865859,5.513120000000001,865859,52,865859,62586,865857,
2174,865861,4.052399999999999,865861,51,865861,62610,865862,
2120,865877,2.9760799999999996,865877,52,865877,62581,865871,
2169,865901,5.4362400000000015,865901,51,865901,62591,865901,
1922,865947,6.512560000000001,865947,51,865947,62587,865941,
1912,865951,3.2067200000000007,865951,52,865951,62580,865951,
2120,865957,4.436800000000002,865957,51,865957,62580,865951,
2162,865959,1.8997600000000006,865959,52,865959,62593,865959,
2156,865961,6.666319999999999,865961,52,865961,62573,865961,
1982,865967,4.052399999999999,865967,51,865967,62573,865961,
2050,865989,6.128160000000001,865989,51,865989,62580,865989,
2283,866021,6.820080000000001,866021,51,866021,62611,866021,
2179,866081,6.2819199999999995,866081,51,866081,62828,866081,
1894,866089,3.8986400000000003,866089,51,866089,62835,866089,
1940,866091,5.051840000000002,866091,51,866091,62865,866091,
1913,866111,2.207280000000001,866111,52,866111,62895,866110,
2161,866116,3.8986400000000003,866116,51,866116,62895,866110,
1930,866147,4.744320000000002,866147,51,866147,62959,866147,
1917,866151,2.668560000000001,866151,51,866151,62930,866149,
2105,866155,6.666319999999999,866155,52,866155,62930,866149,
2485,866199,4.28304,866199,52,866199,63001,866199,
2563,866201,6.89696,866201,51,866201,63001,866199,
2712,866205,5.513120000000001,866205,52,866205,63001,866199,
2802,866207,4.129280000000001,866207,52,866207,63025,866207,
1470,866227,3.9755199999999995,866227,52,866227,63052,866227,
1990,866257,2.9760799999999996,866257,52,866257,63073,866257,
2045,866269,4.59056,866269,51,866269,63076,866269,
2110,866301,4.667439999999999,866301,51,866301,63068,866302,
2004,866305,4.359919999999999,866305,52,866305,63068,866302,
2006,866307,7.7426400000000015,866307,52,866307,63068,866302,
2198,866321,5.666879999999999,866321,52,866321,63178,866322,
2037,866329,6.128160000000001,866329,52,866329,63160,866329,
1985,866347,6.358800000000002,866347,53,866347,63187,866342,
2072,866351,3.360479999999999,866351,51,866351,63198,866352,
2248,866357,7.281359999999999,866357,51,866357,63210,866357,
2251,866361,6.051280000000002,866361,52,866361,63168,866362,
2058,866367,7.127600000000001,866367,51,866367,63168,866362,
2041,866369,2.43792,866369,52,866369,63206,866369,
2180,866379,6.20504,866379,52,866379,63211,866379,
2122,866391,4.744320000000002,866391,51,866391,63233,866391,
2317,866419,5.28248,866419,52,866419,63226,866419,
2283,866421,7.20448,866421,53,866421,63205,866421,
2320,866439,4.436800000000002,866439,52,866439,63091,866439,
2010,866471,3.744880000000002,866471,52,866471,62372,866471,
2006,866481,5.359359999999999,866481,52,866481,62291,866481,
1870,866487,7.5120000000000005,866487,51,866487,62291,866481,
1877,866489,1.5153600000000012,866489,52,866489,62273,866489,
1880,866501,5.4362400000000015,866501,51,866501,62222,866501,
1797,866511,4.974959999999999,866511,52,866511,62222,866501,
1936,866515,7.358240000000002,866515,52,866515,62244,866515,
1744,866531,5.051840000000002,866531,51,866531,62251,866529,
1940,866535,4.513680000000001,866535,51,866535,62251,866529,
1990,866545,4.436800000000002,866545,52,866545,62279,866539,
1934,866547,8.050160000000002,866547,51,866547,62285,866547,
1952,866587,5.4362400000000015,866587,52,866587,62393,866587,
2182,866599,5.666879999999999,866599,51,866599,62364,866599,
2156,866601,8.127040000000001,866601,51,866601,62364,866599,
2029,866605,6.051280000000002,866605,51,866605,62364,866599,
1997,866607,6.20504,866607,51,866607,62427,866607,
1986,866627,2.59168,866627,51,866627,62453,866627,
2013,866651,5.128720000000001,866651,52,866651,62560,866649,
2084,866657,8.81896,866657,51,866657,62554,866657,
2022,866667,7.127600000000001,866667,52,866667,62621,866667,
2052,866669,3.59112,866669,52,866669,62641,866670,
2118,866671,9.28024,866671,52,866671,62641,866670,
1836,866687,4.513680000000001,866687,51,866687,62653,866687,
2049,866711,6.58944,866711,51,866711,62696,866708,
1962,866731,9.664640000000002,866731,51,866731,62698,866729,
2025,866751,6.58944,866751,50,866751,62649,866752,
2136,866759,8.972720000000002,866759,51,866759,62697,866757,
2122,866761,4.436800000000002,866761,51,866761,62662,866762,
2043,866767,6.051280000000002,866767,51,866767,62662,866762,
2052,866769,6.820080000000001,866769,51,866769,62698,866769,
2088,866771,7.8964,866771,51,866771,62698,866769,
1981,866787,5.974399999999999,866787,51,866787,62671,866787,
1976,866789,4.974959999999999,866789,51,866789,62671,866787,
1986,866791,8.972720000000002,866791,51,866791,62692,866792,
2115,866811,6.743200000000002,866811,51,866811,62663,866811,
2128,866821,5.128720000000001,866821,51,866821,62691,866821,
1912,866849,6.051280000000002,866849,51,866849,62759,866849,
1968,866851,9.434000000000001,866851,51,866851,62777,866851,
1860,866869,9.741520000000001,866869,51,866869,62828,866869,
2121,866897,9.357120000000002,866897,51,866897,62864,866891,
2256,866917,7.127600000000001,866917,52,866917,62928,866911,
2073,866941,6.358800000000002,866941,51,866941,62929,866941,
1969,866951,9.434000000000001,866951,51,866951,62944,866951,
2128,866957,9.89528,866957,51,866957,62944,866951,
2171,866959,6.743200000000002,866959,52,866959,62965,866959,
2925,866977,7.973279999999999,866977,52,866977,63009,866971,
2989,866981,8.20392,866981,52,866981,63025,866981,
976,867009,7.58888,867009,52,867009,63059,867009,
1160,867011,7.7426400000000015,867011,51,867011,63075,867011,
2006,867021,9.20336,867021,52,867021,63085,867021,
1984,867071,9.58776,867071,51,867071,63103,867069,
2269,867077,10.81784,867077,51,867077,63110,867077,
2314,867081,10.5872,867081,52,867081,63087,867079,
2133,867085,8.127040000000001,867085,51,867085,63087,867079,
2067,867087,8.58832,867087,51,867087,63164,867087,
2044,867089,9.357120000000002,867089,52,867089,63165,867089,
2005,867107,6.58944,867107,51,867107,63147,867107,
2076,867111,6.512560000000001,867111,52,867111,63172,867109,
2247,867137,8.58832,867137,52,867137,63154,867137,
2185,867141,10.433440000000001,867141,52,867141,63122,867139,
2233,867171,7.5120000000000005,867171,51,867171,63180,867169,
2277,867177,10.2028,867177,52,867177,63174,867177,
2217,867179,7.7426400000000015,867179,52,867179,63187,867179,
2144,867181,7.8964,867181,51,867181,63187,867179,
2292,867199,7.281359999999999,867199,52,867199,63107,867199,
2126,867207,9.741520000000001,867207,52,867207,63024,867207,
1976,867259,9.12648,867259,51,867259,62316,867257,
1795,867269,11.279120000000002,867269,51,867269,62252,867269,
1842,867271,9.049600000000002,867271,52,867271,62239,867271,
1971,867277,7.665760000000002,867277,52,867277,62239,867271,
1841,867291,8.51144,867291,52,867291,62253,867291,
1885,867301,11.048480000000001,867301,51,867301,62270,867301,
1817,867307,11.740400000000001,867307,52,867307,62270,867301,
2001,867321,12.047920000000001,867321,51,867321,62329,867321,
2201,867361,9.51088,867361,52,867361,62389,867361,
2066,867367,12.1248,867367,52,867367,62389,867361,
2132,867379,11.048480000000001,867379,52,867379,62400,867379,
1993,867409,9.972160000000002,867409,52,867409,62446,867409,
2007,867411,10.5872,867411,53,867411,62484,867411,
2108,867421,11.43288,867421,51,867421,62530,867421,
1957,867427,12.5092,867427,52,867427,62530,867421,
2125,867441,10.81784,867441,51,867441,62622,867441,
2033,867447,9.049600000000002,867447,52,867447,62622,867441,
2065,867449,12.5092,867449,51,867449,62654,867449,
1905,867487,9.357120000000002,867487,52,867487,62719,867481,
1939,867489,9.049600000000002,867489,51,867489,62721,867490,
2233,867539,6.435680000000001,867539,50,867539,62615,867540,
2200,867541,12.739840000000001,867541,52,867541,62615,867540,
1940,867547,10.81784,867547,52,867547,62606,867547,
1939,867549,11.43288,867549,51,867549,62598,867550,
1980,867551,11.58664,867551,50,867551,62598,867550,
2058,867681,11.81728,867681,51,867681,62912,867679,
1870,867687,12.355440000000002,867687,51,867687,62881,867686,
1884,867689,12.278560000000002,867689,51,867689,62909,867689,
1945,867691,9.89528,867691,51,867691,62866,867692,
2090,867695,11.20224,867695,52,867695,62866,867692,
2201,867717,11.663520000000002,867717,52,867717,62954,867716,
1935,867749,13.047360000000001,867749,51,867749,63017,867749,
1974,867751,11.20224,867751,52,867751,63052,867752,
2100,867761,13.969920000000002,867761,52,867761,63033,867762,
1398,867809,13.89304,867809,52,867809,63086,867810,
1136,867811,13.662400000000002,867811,52,867811,63113,867812,
1674,867829,11.048480000000001,867829,51,867829,63067,867830,
1764,867831,15.12312,867831,52,867831,63105,867832,
2062,867839,13.047360000000001,867839,52,867839,63065,867840,
2122,867861,11.43288,867861,56,867861,63130,867862,
2248,867877,16.96824,867877,56,867877,63186,867878,
2203,867919,13.969920000000002,867919,54,867919,63169,867920,
2172,867921,12.739840000000001,867921,56,867921,63169,867920,
2066,867929,14.584960000000002,867929,57,867929,63189,867930,
2114,867931,15.2,867931,57,867931,63189,867930,
2206,867936,13.047360000000001,867936,59,867936,63189,867930,
2189,867937,16.583840000000002,867937,59,867937,63182,867938,
2121,867951,15.046240000000001,867951,59,867951,63186,867950,
2329,867956,14.046800000000001,867956,59,867956,63186,867950,
2106,867986,15.50752,867986,57,867986,63221,867980,
2244,867999,12.8936,867999,60,867999,63136,867999,
2382,868015,17.198880000000003,868015,61,868015,63119,868009,
2296,868021,14.277440000000002,868021,62,868021,62974,868019,
2057,868027,15.43064,868027,62,868027,62860,868027,
2058,868029,14.584960000000002,868029,65,868029,62737,868029,
2066,868045,14.354320000000001,868045,60,868045,62543,868039,
1905,868065,17.66016,868065,59,868065,62260,868059,
1906,868075,17.198880000000003,868075,60,868075,62238,868069,
2059,868097,17.42952,868097,57,868097,62198,868097,
2027,868099,16.43008,868099,57,868099,62216,868099,
1993,868121,15.81504,868121,56,868121,62236,868122,
1859,868125,18.42896,868125,58,868125,62236,868122,
1848,868127,14.584960000000002,868127,58,868127,62236,868122,
1982,868147,15.891920000000002,868147,59,868147,62276,868142,
2042,868159,15.50752,868159,57,868159,62313,868159,
1984,868161,18.2752,868161,57,868161,62281,868162,
1971,868209,17.42952,868209,56,868209,62390,868209,
2037,868211,16.199440000000003,868211,57,868211,62405,868211,
2253,868217,18.6596,868217,55,868217,62405,868211,
1891,868231,15.891920000000002,868231,54,868231,62513,868231,
2246,868239,18.813360000000003,868239,53,868239,62532,868239,
2026,868251,13.12424,868251,53,868251,62599,868251,
2176,868259,17.35264,868259,53,868259,62622,868259,
2123,868261,18.198320000000002,868261,53,868261,62630,868261,
1942,868269,15.73816,868269,53,868269,62656,868269,
1996,868271,18.96712,868271,53,868271,62652,868271,
2101,868291,17.35264,868291,54,868291,62685,868291,
2151,868297,15.276880000000002,868297,54,868297,62685,868291,
2008,868309,19.50528,868309,52,868309,62647,868309,
1979,868331,20.274079999999998,868331,52,868331,62589,868331,
2063,868337,17.35264,868337,53,868337,62589,868331,
1933,868347,13.43176,868347,52,868347,62577,868341,
1966,868349,18.813360000000003,868349,52,868349,62596,868349,
2029,868351,18.42896,868351,52,868351,62620,868351,
2198,868359,19.428400000000003,868359,53,868359,62617,868359,
2156,868361,16.7376,868361,51,868361,62613,868361,
2010,868367,19.50528,868367,51,868367,62613,868361,
2004,868369,17.275760000000002,868369,53,868369,62621,868369,
2021,868371,18.12144,868371,51,868371,62627,868371,
2172,868379,14.50808,868379,52,868379,62634,868379,
2085,868391,20.812240000000003,868391,51,868391,62636,868391,
2196,868399,20.427840000000003,868399,50,868399,62642,868399,
2008,868409,22.272960000000005,868409,50,868409,62690,868410,
2077,868421,18.198320000000002,868421,51,868421,62706,868419,
1986,868425,17.890800000000002,868425,50,868425,62706,868419,
2188,868439,17.81392,868439,49,868439,62769,868439,
2116,868441,22.811120000000003,868441,49,868441,62769,868439,
2259,868459,21.58104,868459,51,868459,62795,868459,
2227,868461,20.274079999999998,868461,51,868461,62795,868459,
2078,868465,18.04456,868465,51,868465,62795,868459,
2029,868467,18.6596,868467,51,868467,62840,868467,
2056,868487,22.58048,868487,51,868487,62865,868487,
2100,868497,18.582720000000002,868497,50,868497,62875,868497,
2028,868501,22.657360000000004,868501,49,868501,62870,868499,
1999,868521,19.50528,868521,49,868521,62921,868520,
1889,868526,21.11976,868526,49,868526,62921,868520,
2052,868541,20.043440000000004,868541,51,868541,62969,868540,
2014,868546,17.81392,868546,51,868546,62969,868540,
1992,868547,21.50416,868547,51,868547,62965,868547,
2133,868561,18.813360000000003,868561,52,868561,63003,868560,
2004,868566,22.657360000000004,868566,49,868566,63003,868560,
1930,868587,22.96488,868587,48,868587,63077,868587,
3232,868616,21.11976,868616,50,868616,63072,868610,
3028,868621,22.042320000000004,868621,50,868621,63087,868620,
2112,868626,24.425600000000003,868626,50,868626,63087,868620,
1828,868627,19.88968,868627,49,868627,63101,868627,
987,868636,20.50472,868636,49,868636,63103,868630,
1662,868649,21.50416,868649,49,868649,63107,868650,
1808,868651,23.810560000000002,868651,48,868651,63107,868650,
2082,868656,18.582720000000002,868656,48,868656,63107,868650,
2144,868659,20.043440000000004,868659,48,868659,63079,868660,
2013,868667,22.96488,868667,49,868667,63069,868667,
2133,868677,18.813360000000003,868677,49,868677,63097,868677,
1924,868709,18.89024,868709,49,868709,63127,868710,
1957,868711,25.655680000000004,868711,49,868711,63127,868710,
2139,868716,23.272400000000005,868716,48,868716,63127,868710,
2189,868717,22.73424,868717,48,868717,63146,868717,
2064,868731,23.887439999999998,868731,49,868731,63136,868730,
2147,868737,23.50304,868737,46,868737,63157,868737,
2133,868739,24.50248,868739,48,868739,63152,868740,
2174,868759,20.35096,868759,48,868759,63208,868759,
2080,868787,21.427280000000003,868787,49,868787,63200,868781,
2209,868791,20.812240000000003,868791,49,868791,63240,868791,
2315,868797,23.34928,868797,50,868797,63240,868791,
2250,868799,24.34872,868799,50,868799,63252,868799,
2326,868821,26.11696,868821,50,868821,63218,868821,
2156,868841,24.73312,868841,51,868841,62999,868841,
2350,868859,25.425040000000003,868859,50,868859,62670,868859,
1913,868867,26.11696,868867,49,868867,62587,868861,
1954,868871,27.270160000000004,868871,50,868871,62413,868871,
2147,868877,25.886320000000005,868877,47,868877,62413,868871,
2094,868879,26.11696,868879,48,868879,62355,868879,
2104,868897,26.11696,868897,47,868897,62289,868891,
2043,868901,22.811120000000003,868901,49,868901,62241,868901,
1720,868907,26.885760000000005,868907,47,868907,62241,868901,
1698,868911,26.11696,868911,48,868911,62215,868910,
1873,868915,23.96432,868915,49,868915,62187,868916,
1854,868925,25.1944,868925,48,868925,62253,868919,
1899,868939,26.96264,868939,47,868939,62264,868939,
2017,868961,26.424480000000003,868961,46,868961,62305,868959,
1897,868965,24.425600000000003,868965,48,868965,62305,868959,
1890,868967,28.423360000000002,868967,47,868967,62296,868967,
1942,868969,25.11752,868969,47,868969,62324,868969,
2156,868999,28.500240000000005,868999,49,868999,62326,868999,
1989,869031,28.423360000000002,869031,48,869031,62420,869029,
2040,869041,25.73256,869041,48,869041,62449,869039,
2041,869045,28.96152,869045,48,869045,62449,869039,
2069,869047,25.809440000000002,869047,46,869047,62458,869047,
2102,869049,30.34536,869049,48,869049,62475,869049,
2064,869061,26.19384,869061,48,869061,62523,869059,
2208,869097,25.655680000000004,869097,49,869097,62620,869096,
2139,869099,30.037840000000003,869099,48,869099,62655,869099,
2086,869111,26.885760000000005,869111,48,869111,62694,869112,
2045,869127,27.500799999999998,869127,48,869127,62661,869126,
2092,869135,29.34592,869135,48,869135,62668,869132,
1987,869139,27.73144,869139,48,869139,62672,869139,
1942,869141,29.269040000000004,869141,48,869141,62660,869142,
1939,869145,30.883520000000004,869145,48,869145,62660,869142,
1985,869147,24.656240000000004,869147,49,869147,62660,869142,
2048,869149,31.037280000000003,869149,48,869149,62660,869149,
1897,869165,26.3476,869165,48,869165,62632,869162,
1963,869171,27.96208,869171,48,869171,62625,869172,
2017,869189,29.57656,869189,49,869189,62571,869189,
2221,869199,31.267920000000004,869199,48,869199,62595,869199,
2176,869201,29.73032,869201,49,869201,62599,869201,
2067,869209,29.96096,869209,48,869209,62616,869209,
2105,869211,26.57824,869211,48,869211,62607,869211,
2093,869237,30.037840000000003,869237,49,869237,62641,869231,
2068,869239,30.499120000000005,869239,49,869239,62642,869239,
2015,869249,31.498560000000005,869249,47,869249,62624,869249,
2081,869251,30.422240000000002,869251,48,869251,62663,869251,
1747,869267,29.11528,869267,48,869267,62656,869261,
1832,869271,31.114160000000005,869271,46,869271,62650,869271,
2073,869277,31.7292,869277,49,869277,62650,869271,
2092,869279,27.885200000000005,869279,49,869279,62672,869279,
2077,869281,31.95984,869281,47,869281,62668,869281,
2009,869289,29.038400000000003,869289,49,869289,62704,869289,
2040,869291,31.882960000000004,869291,48,869291,62724,869291,
2090,869297,25.5788,869297,49,869297,62724,869291,
2083,869299,30.499120000000005,869299,49,869299,62744,869299,
2078,869319,29.884080000000004,869319,50,869319,62805,869319,
2041,869321,30.1916,869321,49,869321,62794,869321,
1972,869327,33.42056,869327,49,869327,62794,869321,
2094,869331,31.882960000000004,869331,49,869331,62823,869331,
2257,869337,30.037840000000003,869337,48,869337,62823,869331,
2195,869349,32.03672,869349,49,869349,62856,869349,
2755,869367,32.80552,869367,51,869367,62900,869368,
2671,869369,30.883520000000004,869369,50,869369,62907,869370,
1027,869387,31.19104,869387,49,869387,62925,869388,
1923,869399,33.72808,869399,49,869399,62924,869399,
1940,869407,29.653440000000003,869407,49,869407,62948,869407,
1964,869425,29.422800000000002,869425,50,869425,62988,869419,
2092,869431,33.72808,869431,49,869431,63017,869429,
2190,869439,30.9604,869439,50,869439,62994,869439,
1935,869445,35.496320000000004,869445,51,869445,62994,869439,
2163,869459,33.42056,869459,51,869459,62956,869459,
1967,869487,32.498000000000005,869487,51,869487,63014,869487,
2113,869491,32.57488,869491,52,869491,63031,869489,
2274,869495,35.26568,869495,51,869495,63031,869489,
2285,869497,30.883520000000004,869497,51,869497,63000,869497,
2102,869511,28.807760000000002,869511,52,869511,63081,869511,
2093,869521,34.0356,869521,51,869521,63063,869520,
2094,869529,30.037840000000003,869529,51,869529,63077,869530,
2196,869531,35.496320000000004,869531,51,869531,63077,869530,
2346,869536,31.95984,869536,51,869536,63109,869536,
2036,869549,35.726960000000005,869549,51,869549,63083,869550,
2205,869556,36.880160000000004,869556,53,869556,63121,869556,
2226,869561,31.267920000000004,869561,51,869561,63080,869560,
2294,869566,31.95984,869566,54,869566,63114,869566,
2251,869571,35.880720000000004,869571,53,869571,63059,869570,
2273,869576,29.96096,869576,54,869576,63047,869576,
2276,869579,32.113600000000005,869579,53,869579,62982,869580,
2076,869609,35.5732,869609,51,869609,62409,869610,
1836,869629,30.652880000000003,869629,53,869629,62210,869630,
1884,869631,37.41832,869631,51,869631,62210,869630,
2022,869636,35.5732,869636,51,869636,62199,869636,
1903,869641,34.57376,869641,53,869641,62165,869640,
1819,869646,37.8796,869646,52,869646,62177,869646,
1889,869649,37.41832,869649,52,869649,62147,869650,
1963,869651,36.64952,869651,52,869651,62147,869650,
2033,869656,38.6484,869656,52,869656,62163,869656,
1763,869669,37.110800000000005,869669,51,869669,62156,869670,
2035,869679,32.72864,869679,51,869679,62146,869680,
1953,869686,35.496320000000004,869686,51,869686,62173,869686,
1939,869689,37.95648,869689,52,869689,62166,869690,
2064,869717,37.110800000000005,869717,52,869717,62190,869711,
2098,869727,37.03392,869727,52,869727,62244,869721,
2128,869731,39.4172,869731,51,869731,62219,869731,
2101,869739,36.726400000000005,869739,51,869739,62264,869739,
2000,869741,38.18712,869741,50,869741,62247,869741,
1851,869747,32.72864,869747,51,869747,62247,869741,
1898,869749,40.724160000000005,869749,51,869749,62247,869741,
2058,869771,36.95704,869771,51,869771,62316,869771,
2186,869777,38.80216,869777,51,869777,62316,869771,
2050,869791,36.26512,869791,53,869791,62365,869791,
2178,869797,36.03448,869797,52,869797,62365,869791,
2086,869801,34.34312,869801,53,869801,62400,869801,
2050,869821,39.87848,869821,51,869821,62497,869821,
1897,869827,40.5704,869827,50,869827,62497,869821,
1915,869829,37.725840000000005,869829,50,869829,62502,869829,
2182,869857,38.80216,869857,50,869857,62535,869857,
2151,869859,39.87848,869859,50,869859,62576,869859,
2086,869861,40.5704,869861,50,869861,62576,869859,
1982,869865,36.342,869865,52,869865,62576,869859,
2136,869879,38.6484,869879,51,869879,62576,869879,
1952,869885,44.03,869885,51,869885,62576,869879,
1969,869887,36.80328,869887,52,869887,62581,869887,
2121,869907,41.80048,869907,51,869907,62522,869907,
2152,869909,39.64784,869909,52,869909,62539,869909,
2171,869911,40.26288,869911,51,869911,62539,869909,
2157,869915,39.494080000000004,869915,50,869915,62539,869909,
2166,869941,42.79992,869941,52,869941,62479,869939,
2065,869945,42.18488,869945,51,869945,62479,869939,
2057,869947,42.108000000000004,869947,51,869947,62521,869947,
2080,869949,42.64616,869949,51,869949,62498,869949,
2041,869969,39.18656,869969,51,869969,62534,869969,
2126,869975,41.26232,869975,52,869975,62534,869969,
2116,869977,42.338640000000005,869977,51,869977,62503,869977,
1856,869985,43.56872,869985,51,869985,62539,869979,
2098,869999,43.49184,869999,51,869999,62567,869999,
2002,870031,42.953680000000006,870031,50,870031,62648,870032,
2195,870039,46.02888,870039,52,870039,62702,870039,
2156,870041,41.41608,870041,51,870041,62702,870039,
2004,870045,44.18376,870045,51,870045,62662,870046,
2061,870061,42.64616,870061,52,870061,62733,870062,
2062,870069,43.18432,870069,53,870069,62775,870067,
2588,870089,46.41328,870089,52,870089,62773,870089,
2880,870101,45.106320000000004,870101,52,870101,62827,870101,
2074,870111,47.41272,870111,51,870111,62856,870111,
1213,870119,45.721360000000004,870119,51,870119,62867,870119,
1115,870121,44.87568,870121,51,870121,62887,870121,
2066,870147,46.25952,870147,52,870147,62921,870141,
2120,870151,47.1052,870151,51,870151,62939,870151,
2172,870179,49.4116,870179,52,870179,62984,870179,
2154,870197,50.41104,870197,52,870197,62993,870191,
2095,870201,45.567600000000006,870201,52,870201,62961,870201,
2016,870207,45.64448,870207,52,870207,62961,870201,
2118,870211,46.336400000000005,870211,52,870211,62949,870211,
2185,870217,44.49128,870217,51,870217,62949,870211,
2126,870219,47.41272,870219,52,870219,62966,870219,
2067,870221,47.25896,870221,53,870221,62950,870221,
2142,870241,47.720240000000004,870241,52,870241,62997,870241,
1960,870249,43.56872,870249,52,870249,63031,870249,
2018,870251,50.41104,870251,53,870251,63029,870251,
2114,870269,49.48848,870269,53,870269,63044,870269,
2246,870299,45.952000000000005,870299,53,870299,63027,870299,
2164,870309,47.4896,870309,53,870309,62952,870310,
2254,870311,48.6428,870311,53,870311,62952,870310,
2371,870315,49.0272,870315,53,870315,62952,870310,
2104,870331,48.48904,870331,52,870331,62565,870330,
2214,870339,43.56872,870339,53,870339,62366,870339,
2008,870347,48.181520000000006,870347,52,870347,62310,870347,
2073,870357,45.1832,870357,51,870357,62257,870357,
1887,870381,50.564800000000005,870381,51,870381,62110,870379,
1720,870389,48.2584,870389,51,870389,62088,870389,
1866,870407,47.335840000000005,870407,51,870407,62113,870407,
1865,870409,53.25560000000001,870409,51,870409,62096,870409,
1885,870411,46.41328,870411,51,870411,62096,870409,
2040,870449,52.17928,870449,52,870449,62134,870449,
2109,870457,51.25672000000001,870457,52,870457,62145,870457,
1962,870461,48.181520000000006,870461,52,870461,62154,870459,
1987,870467,53.48624,870467,52,870467,62171,870467,
2064,870469,52.25616,870469,52,870469,62166,870469,
2037,870491,49.565360000000005,870491,52,870491,62238,870489,
2106,870501,45.567600000000006,870501,53,870501,62185,870502,
2025,870546,53.716879999999996,870546,52,870546,62352,870546,
2143,870556,53.33248,870556,53,870556,62397,870556,
2082,870559,53.25560000000001,870559,52,870559,62400,870560,
2146,870571,56.407680000000006,870571,51,870571,62414,870570,
2217,870576,54.25504,870576,53,870576,62456,870576,
2117,870579,52.48680000000001,870579,52,870579,62458,870580,
2119,870641,52.40992000000001,870641,52,870641,62472,870640,
1975,870646,55.562000000000005,870646,52,870646,62454,870646,
1963,870649,55.40824,870649,52,870649,62454,870646,
2105,870661,58.48344000000001,870661,52,870661,62470,870661,
2210,870679,58.6372,870679,52,870679,62478,870679,
1912,870707,55.715759999999996,870707,53,870707,62465,870701,
2157,870721,56.02328000000001,870721,51,870721,62534,870721,
2086,870727,56.94584,870727,51,870727,62534,870721,
2110,870729,54.02440000000001,870729,52,870729,62515,870729,
1934,870747,55.40824,870747,52,870747,62550,870741,
2049,870759,57.71464000000001,870759,51,870759,62644,870759,
1966,870765,56.86896000000001,870765,52,870765,62644,870759,
1988,870781,58.09904000000001,870781,52,870781,62686,870779,
1862,870785,55.79264,870785,52,870785,62686,870779,
1870,870787,59.71352000000001,870787,52,870787,62687,870787,
2167,870795,57.176480000000005,870795,52,870795,62697,870789,
1934,870805,56.94584,870805,53,870805,62697,870799,
1892,870807,53.87064,870807,52,870807,62757,870807,
1886,870809,60.405440000000006,870809,52,870809,62715,870809,
2104,870827,60.86672000000001,870827,52,870827,62771,870827,
2073,870831,59.406,870831,52,870831,62778,870829,
1968,870847,51.717999999999996,870847,52,870847,62773,870847,
2168,870851,58.56032,870851,52,870851,62796,870849,
2438,870855,57.63776000000001,870855,51,870855,62796,870849,
2936,870869,56.3308,870869,52,870869,62840,870869,
2368,870879,56.48456000000001,870879,52,870879,62849,870879,
1053,870889,59.09848,870889,51,870889,62863,870889,
1116,870891,58.94472,870891,52,870891,62863,870889,
1458,870895,59.71352000000001,870895,51,870895,62863,870889,
1606,870897,58.2528,870897,52,870897,62846,870897,
2227,870915,57.40712,870915,52,870915,62890,870909,
1970,870927,59.559760000000004,870927,52,870927,62930,870927,
2135,870935,59.25224000000001,870935,51,870935,62930,870927,
2091,870939,62.019920000000006,870939,52,870939,62919,870939,
1899,870945,61.02048,870945,53,870945,62924,870946,
1913,870947,58.56032,870947,51,870947,62924,870946,
1966,870949,59.944160000000004,870949,51,870949,62930,870949,
2070,870967,57.40712,870967,51,870967,62921,870962,
2186,870975,63.71128000000001,870975,52,870975,62929,870976,
2153,871011,62.17368,871011,54,871011,62989,871012,
2142,871019,61.25112000000001,871019,53,871019,63054,871020,
2075,871031,56.02328000000001,871031,54,871031,63067,871032,
2363,871039,62.25056,871039,53,871039,63080,871040,
2110,871051,65.71016,871051,52,871051,63037,871052,
2219,871059,63.557520000000004,871059,51,871059,63100,871060,
2186,871069,64.48008000000002,871069,52,871069,63084,871070,
2214,871079,61.94304,871079,52,871079,63012,871080,
2158,871091,63.86504,871091,52,871091,62786,871092,
2070,871109,64.32632000000001,871109,53,871109,62417,871110,
2112,871111,62.86560000000001,871111,53,871111,62364,871112,
2142,871119,60.32856,871119,53,871119,62244,871120,
1955,871131,61.25112000000001,871131,51,871131,62142,871132,
1900,871149,63.01936,871149,52,871149,62086,871150,
1952,871159,64.48008000000002,871159,51,871159,62065,871152,
1987,871181,67.63216,871181,52,871181,62019,871180,
1849,871189,65.63328000000001,871189,51,871189,62059,871190,
1915,871191,63.09624,871191,52,871191,62059,871190,
2048,871197,60.86672000000001,871197,51,871197,62120,871198,
2016,871199,67.70904000000002,871199,52,871199,62077,871200,
1752,871206,61.63552000000001,871206,53,871206,62077,871200,
2210,871219,60.25168,871219,51,871219,62113,871220,
2120,871221,66.47896,871221,52,871221,62113,871220,
1971,871247,65.63328000000001,871247,51,871247,62120,871248,
2018,871271,63.09624,871271,52,871271,62185,871270,
2186,871281,63.94192,871281,52,871281,62194,871279,
1946,871289,64.71072000000001,871289,52,871289,62233,871289,
2173,871317,65.32576,871317,53,871317,62332,871317,
2153,871335,58.790960000000005,871335,53,871335,62366,871329,
2176,871337,66.78648000000001,871337,52,871337,62394,871337,
2140,871351,70.70736,871351,53,871351,62409,871349,
2075,871371,62.48120000000001,871371,52,871371,62438,871369,
2124,871375,65.24888000000001,871375,53,871375,62438,871369,
2117,871377,67.63216,871377,52,871377,62405,871377,
2092,871379,67.24776,871379,53,871379,62427,871379,
2002,871429,63.32688000000001,871429,52,871429,62419,871429,
2283,871457,68.09344000000002,871457,52,871457,62371,871452,
2123,871471,70.24608,871471,52,871471,62437,871472,
2120,871491,70.09232,871491,52,871491,62452,871491,
2282,871517,68.86224000000001,871517,52,871517,62529,871515,
2044,871521,69.86168,871521,51,871521,62564,871522,
1988,871541,67.24776,871541,52,871541,62602,871542,
1997,871547,71.86055999999999,871547,51,871547,62602,871542,
2027,871549,70.93800000000002,871549,52,871549,62579,871549,
2058,871551,71.39928,871551,51,871551,62649,871551,
2085,871571,72.39872,871571,52,871571,62694,871571,
2064,871581,68.09344000000002,871581,52,871581,62731,871581,
1917,871589,72.39872,871589,52,871589,62714,871589,
1998,871591,72.93688,871591,52,871591,62748,871591,
2195,871597,69.93856,871597,53,871597,62748,871591,
2122,871601,75.62768,871601,52,871601,62742,871601,
1965,871607,70.16920000000002,871607,52,871607,62742,871601,
1965,871609,70.09232,871609,52,871609,62747,871609,
1988,871611,71.47616,871611,52,871611,62738,871611,
2412,871631,71.47616,871631,52,871631,62816,871631,
2875,871639,68.32408000000001,871639,53,871639,62825,871639,
2909,871641,75.78144,871641,52,871641,62837,871641,
821,871667,74.32072,871667,51,871667,62863,871661,
1782,871677,76.93464,871677,52,871677,62868,871671,
1936,871689,75.16640000000001,871689,51,871689,62911,871689,
2120,871711,75.16640000000001,871711,51,871711,62958,871709,
2050,871725,74.55136000000002,871725,51,871725,62971,871719,
2128,871727,75.24328,871727,51,871727,62951,871727,
2200,871729,73.24440000000001,871729,50,871729,62975,871729,
2258,871731,74.47448,871731,51,871731,62975,871729,
2138,871749,72.16808,871749,52,871749,62987,871749,
2172,871759,68.32408000000001,871759,52,871759,63018,871759,
2052,871761,77.54968,871761,51,871761,63018,871759,
2262,871777,70.86112,871777,52,871777,63014,871777,
2188,871799,70.09232,871799,52,871799,63000,871799,
2150,871829,76.62711999999999,871829,54,871829,63078,871829,
2200,871831,76.85776000000001,871831,53,871831,63078,871829,
2272,871835,72.62935999999999,871835,54,871835,63078,871829,
2281,871837,80.47112000000001,871837,53,871837,63050,871837,
2271,871857,71.32240000000002,871857,53,871857,63079,871857,
2166,871861,78.16472000000002,871861,52,871861,63067,871859,
2259,871881,78.01096000000001,871881,52,871881,62826,871882,
2118,871887,77.01151999999999,871887,52,871887,62826,871882,
1917,871919,73.39815999999999,871919,51,871919,62231,871919,
1849,871921,80.1636,871921,51,871921,62166,871922,
1861,871927,78.16472000000002,871927,51,871927,62177,871927,
1716,871947,79.0104,871947,51,871947,62101,871941,
1828,871949,79.47167999999999,871949,52,871949,62091,871949,
1966,871959,78.16472000000002,871959,52,871959,62095,871959,
2008,871969,78.93352000000002,871969,51,871969,62116,871969,
1952,871981,81.00928000000002,871981,51,871981,62159,871981,
1963,872001,79.54856000000001,872001,51,872001,62192,872001,
1973,872007,79.0104,872007,50,872007,62192,872001,
2051,872009,80.31736000000001,872009,51,872009,62208,872009,
2037,872029,79.24104,872029,51,872029,62264,872029,
2131,872039,76.01208,872039,51,872039,62253,872039,
1987,872067,81.08616,872067,52,872067,62306,872061,
2107,872081,82.93128000000002,872081,51,872081,62385,872081,
2019,872087,79.70232000000001,872087,52,872087,62385,872081,
2046,872089,80.77864,872089,51,872089,62432,872089,
2193,872117,87.08279999999999,872117,52,872117,62537,872111,
2050,872129,82.54688000000002,872129,52,872129,62583,872129,
2067,872131,80.00984,872131,52,872131,62579,872131,
2138,872149,81.3168,872149,52,872149,62594,872149,
1932,872161,85.46832,872161,52,872161,62628,872161,
2056,872169,84.46888000000001,872169,51,872169,62620,872170,
2161,872171,82.0856,872171,52,872171,62620,872170,
2260,872175,84.23823999999999,872175,52,872175,62620,872170,
2240,872177,78.85664,872177,52,872177,62578,872177,
2188,872197,86.46776,872197,52,872197,62561,872197,
2135,872209,83.70008000000001,872209,52,872209,62509,872209,
1908,872225,86.54464000000002,872225,52,872225,62481,872219,
1922,872227,84.69952,872227,52,872227,62473,872227,
1986,872245,85.69896,872245,51,872245,62464,872239,
2198,872257,81.54744,872257,51,872257,62452,872257,
2024,872261,77.08840000000001,872261,51,872261,62451,872259,
1804,872265,86.23712,872265,50,872265,62451,872259,
1826,872269,84.69952,872269,51,872269,62456,872269,
1926,872271,85.00704000000002,872271,51,872271,62456,872269,
2100,872275,82.62376,872275,51,872275,62456,872269,
2114,872279,80.77864,872279,51,872279,62492,872279,
2024,872297,82.16248000000002,872297,51,872297,62508,872297,
2089,872311,87.23656,872311,52,872311,62532,872309,
2119,872347,86.77528000000001,872347,52,872347,62625,872342,
2361,872351,85.69896,872351,51,872351,62679,872349,
2621,872355,86.69839999999999,872355,52,872355,62653,872356,
2722,872357,87.69784000000001,872357,52,872357,62653,872356,
2778,872359,82.77752000000001,872359,53,872359,62680,872359,
2790,872361,90.23488,872361,52,872361,62633,872362,
1883,872379,89.38920000000002,872379,51,872379,62736,872377,
1856,872397,89.15856,872397,51,872397,62740,872396,
1910,872401,91.84936000000002,872401,51,872401,62774,872402,
1967,872411,89.00480000000002,872411,52,872411,62756,872412,
2171,872417,86.23712,872417,52,872417,62756,872412,
2145,872419,90.84992,872419,52,872419,62787,872419,
2134,872431,89.23544000000001,872431,50,872431,62803,872431,
2177,872439,85.5452,872439,49,872439,62814,872439,
2240,872457,87.00592,872457,48,872457,62855,872451,
2112,872461,84.392,872461,45,872461,62879,872461,
2141,872471,86.16024000000002,872471,50,872471,62885,872471,
2014,872481,87.15968000000001,872481,52,872481,62898,872481,
2081,872499,87.39032,872499,53,872499,62946,872499,
2302,872515,87.23656,872515,54,872515,62942,872515,
2287,872519,90.38864000000001,872519,53,872519,62882,872519,
2216,872521,88.77416,872521,53,872521,62932,872522,
2067,872527,83.85383999999999,872527,54,872527,62945,872527,
2205,872557,90.92680000000001,872557,56,872557,62989,872558,
2166,872567,85.85272,872567,56,872567,62993,872568,
2300,872576,90.92680000000001,872576,55,872576,63014,872570,
2270,872577,91.69560000000001,872577,55,872577,63007,872578,
2194,872579,90.15800000000002,872579,54,872579,63029,872580,
2370,872591,95.23208,872591,53,872591,62984,872590,
2130,872601,89.23544000000001,872601,53,872601,62907,872600,
2103,872611,85.23768000000001,872611,54,872611,62783,872610,
2206,872616,92.46440000000001,872616,53,872616,62783,872610,
2067,872631,97.61536000000001,872631,52,872631,62355,872630,
2013,872636,91.15744000000001,872636,52,872636,62355,872630,
1724,872641,93.38696000000002,872641,51,872641,62220,872640,
1685,872646,92.46440000000001,872646,52,872646,62220,872640,
1717,872647,90.77304000000001,872647,51,872647,62177,872648,
1775,872649,97.15408,872649,51,872649,62140,872650,
1930,872659,94.46328,872659,51,872659,62091,872660,
1929,872671,97.76912000000002,872671,52,872671,62050,872670,
2012,872676,94.69391999999999,872676,51,872676,62050,872670,
2012,872677,87.08279999999999,872677,54,872677,62028,872678,
2050,872691,90.38864000000001,872691,51,872691,62078,872690,
2099,872711,93.31008,872711,51,872711,62087,872709,
2142,872717,88.54352,872717,51,872717,62053,872717,
2082,872739,88.62040000000002,872739,50,872739,62101,872739,
2101,872741,96.3084,872741,52,872741,62101,872739,
2152,872745,93.38696000000002,872745,51,872745,62101,872739,
2193,872747,93.92511999999999,872747,51,872747,62110,872747,
2229,872749,96.23152000000002,872749,51,872749,62128,872749,
2010,872767,94.07888,872767,50,872767,62154,872767,
2097,872791,94.77080000000001,872791,51,872791,62242,872789,
2169,872795,96.61592000000002,872795,51,872795,62242,872789,
2130,872799,98.30727999999999,872799,50,872799,62291,872799,
2137,872819,91.38808,872819,52,872819,62395,872817,
2108,872821,100.1524,872821,51,872821,62372,872822,
2017,872829,96.53904,872829,52,872829,62433,872829,
2122,872859,95.07831999999999,872859,51,872859,62506,872859,
1896,872869,97.92287999999999,872869,51,872869,62516,872867,
2088,872889,97.53847999999999,872889,52,872889,62505,872889,
2160,872891,98.76856000000001,872891,52,872891,62516,872891,
2059,872927,103.45824000000002,872927,52,872927,62557,872921,
2069,872929,90.77304000000001,872929,52,872929,62542,872929,
1993,872947,94.84768,872947,51,872947,62538,872941,
1951,872957,100.22928000000002,872957,52,872957,62520,872951,
2181,872971,104.84208000000001,872971,51,872971,62531,872971,
2004,872977,100.76744,872977,52,872977,62531,872971,
1910,872979,101.22872000000001,872979,51,872979,62514,872979,
1992,873011,104.3808,873011,52,873011,62519,873011,
2209,873017,91.84936000000002,873017,52,873017,62519,873011,
2159,873021,101.07496,873021,52,873021,62551,873021,
1939,873027,99.3836,873027,52,873027,62551,873021,
1934,873029,98.15352000000001,873029,52,873029,62560,873029,
1937,873041,99.46048000000002,873041,51,873041,62590,873041,
2382,873059,104.7652,873059,51,873059,62622,873059,
2769,873069,98.92232000000001,873069,52,873069,62633,873069,
1872,873089,102.76632000000001,873089,51,873089,62687,873090,
1727,873091,99.46048000000002,873091,51,873091,62687,873090,
1412,873095,99.768,873095,52,873095,62687,873090,
1286,873097,97.00032000000002,873097,50,873097,62680,873097,
1225,873099,105.53399999999999,873099,51,873099,62697,873099,
2033,873115,99.3836,873115,51,873115,62721,873109,
2113,873117,100.69056,873117,52,873117,62693,873117,
2157,873137,99.69112000000001,873137,51,873137,62759,873137,
1973,873145,96.07776000000001,873145,50,873145,62731,873139,
2009,873147,104.30392,873147,51,873147,62771,873147,
2191,873175,101.53623999999999,873175,52,873175,62784,873169,
2169,873177,104.07328000000001,873177,51,873177,62759,873177,
2118,873179,101.53623999999999,873179,51,873179,62774,873179,
2130,873199,104.61144000000002,873199,51,873199,62779,873199,
2198,873217,102.0744,873217,51,873217,62810,873217,
1919,873245,103.15072,873245,53,873245,62858,873239,
2309,873255,99.22984,873255,53,873255,62871,873249,
2132,873261,102.76632000000001,873261,53,873261,62873,873259,
1986,873265,105.22648000000001,873265,53,873265,62873,873259,
2006,873267,104.15016,873267,52,873267,62882,873267,
2090,873269,102.68944000000002,873269,53,873269,62895,873269,
2188,873271,105.68776,873271,52,873271,62892,873272,
2201,873291,103.38136,873291,54,873291,62943,873289,
2202,873297,108.37856,873297,53,873297,62874,873296,
2192,873299,101.45936,873299,53,873299,62926,873299,
2228,873307,105.14959999999999,873307,53,873307,62961,873307,
2262,873309,106.99472,873309,53,873309,62961,873307,
2294,873311,105.38024000000001,873311,52,873311,62964,873312,
2193,873317,101.22872000000001,873317,53,873317,62964,873312,
2109,873319,109.14735999999999,873319,52,873319,62960,873319,
1963,873351,106.37968000000001,873351,52,873351,62570,873351,
1954,873357,104.91896,873357,52,873357,62570,873351,
1900,873359,108.83984000000001,873359,51,873359,62471,873359,
1836,873361,103.38136,873361,51,873361,62385,873361,
1940,873379,105.14959999999999,873379,53,873379,62224,873379,
1792,873387,103.68888000000001,873387,52,873387,62210,873381,
1909,873391,108.14792,873391,52,873391,62155,873391,
2028,873399,107.45600000000002,873399,51,873399,62130,873399,
1979,873401,106.22592,873401,51,873401,62117,873401,
1941,873407,112.06880000000001,873407,50,873407,62117,873401,
2012,873439,107.84040000000002,873439,51,873439,62085,873439,
1965,873441,110.06992,873441,50,873441,62075,873441,
1990,873461,108.53232,873461,51,873461,62064,873461,
1985,873467,107.07160000000002,873467,51,873467,62064,873461,
2035,873481,107.76352,873481,50,873481,62097,873481,
2007,873521,112.91448,873521,51,873521,62188,873520,
2034,873529,112.37631999999999,873529,51,873529,62264,873530,
2145,873551,112.68384,873551,51,873551,62333,873550,
2210,873557,109.30112,873557,51,873557,62321,873557,
2148,873559,106.30280000000002,873559,51,873559,62361,873559,
2090,873567,106.07216,873567,52,873567,62338,873567,
2180,873571,110.68496000000002,873571,51,873571,62350,873570,
2010,873579,109.99304000000001,873579,51,873579,62350,873579,
2107,873591,109.22424000000001,873591,51,873591,62362,873589,
2004,873601,109.37800000000001,873601,51,873601,62358,873600,
2038,873609,116.06656000000001,873609,51,873609,62383,873609,
2101,873611,104.84208000000001,873611,52,873611,62383,873609,
2241,873635,110.53120000000001,873635,51,873635,62410,873630,
2179,873649,117.4504,873649,52,873649,62448,873650,
2190,873655,104.84208000000001,873655,52,873655,62448,873650,
2061,873659,112.99136000000001,873659,52,873659,62456,873660,
2001,873661,113.99080000000001,873661,51,873661,62456,873660,
1986,873665,111.76128,873665,52,873665,62456,873660,
2009,873689,109.45488,873689,52,873689,62481,873689,
1904,873699,104.84208000000001,873699,52,873699,62483,873698,
1826,873701,113.83704,873701,51,873701,62483,873698,
2099,873741,119.3724,873741,51,873741,62511,873742,
1940,873747,115.75904,873747,52,873747,62511,873742,
1963,873749,114.99024,873749,51,873749,62567,873749,
2852,873791,115.06711999999999,873791,52,873791,62589,873792,
1034,873821,113.06824,873821,50,873821,62606,873821,
2066,873851,118.2192,873851,51,873851,62683,873851,
2029,873861,116.37407999999999,873861,51,873861,62687,873861,
2200,873871,114.29832000000002,873871,51,873871,62703,873871,
2177,873877,119.29552000000001,873877,51,873877,62703,873871,
2090,873891,115.83591999999999,873891,53,873891,62710,873891,
2075,873897,111.68440000000001,873897,52,873897,62710,873891,
2056,873899,119.83367999999999,873899,52,873899,62727,873899,
2036,873901,110.14680000000001,873901,52,873901,62729,873901,
2130,873917,117.60416000000001,873917,52,873917,62728,873911,
2029,873921,118.75736,873921,52,873921,62744,873921,
2097,873931,118.06544,873931,53,873931,62761,873931,
2043,873947,119.91056,873947,52,873947,62752,873941,
2277,873951,118.52672000000001,873951,53,873951,62781,873951,
2310,873957,116.91224,873957,56,873957,62781,873951,
2245,873959,118.83424,873959,53,873959,62786,873959,
2164,873961,117.4504,873961,53,873961,62802,873961,
2155,873981,120.06432000000001,873981,54,873981,62837,873981,
2176,873989,113.60640000000001,873989,53,873989,62848,873989,
2179,874009,119.14176,874009,53,874009,62874,874009,
2088,874025,122.14008000000001,874025,51,874025,62921,874020,
2132,874029,119.67992000000001,874029,54,874029,62934,874029,
2143,874035,125.83032,874035,54,874035,62934,874029,
2141,874037,114.14456000000001,874037,52,874037,62905,874037,
2190,874055,117.52727999999999,874055,52,874055,62959,874049,
1966,874071,121.06376,874071,51,874071,62954,874069,
1897,874079,125.98408,874079,51,874079,62930,874079,
1822,874099,120.37183999999999,874099,52,874099,62703,874099,
1861,874109,125.06152,874109,51,874109,62477,874109,
1949,874127,127.59855999999999,874127,51,874127,62296,874127,
1961,874167,124.44648000000001,874167,51,874167,62137,874167,
2052,874169,121.6788,874169,51,874169,62138,874169,
2134,874171,126.82976,874171,51,874171,62138,874169,
2144,874177,121.14063999999999,874177,50,874177,62147,874177,
2149,874197,126.90664000000001,874197,50,874197,62154,874192,
2014,874211,123.13952,874211,50,874211,62144,874212,
2118,874251,124.13896,874251,52,874251,62221,874252,
2093,874261,122.29383999999999,874261,51,874261,62242,874262,
2040,874267,128.598,874267,50,874267,62242,874262,
2068,874269,119.52616,874269,50,874269,62261,874269,
2074,874289,130.36624,874289,51,874289,62275,874289,
2136,874291,118.6036,874291,51,874291,62270,874291,
2020,874301,126.75288,874301,51,874301,62300,874301,
2011,874307,123.37016,874307,51,874307,62300,874301,
2028,874309,121.6788,874309,51,874309,62293,874309,
2169,874331,122.14008000000001,874331,50,874331,62320,874331,
2066,874341,127.13728,874341,50,874341,62337,874341,
1958,874347,126.21472,874347,51,874347,62337,874341,
2019,874349,125.90719999999999,874349,51,874349,62351,874349,
2124,874381,130.52,874381,51,874381,62323,874381,
2004,874407,129.98184,874407,51,874407,62332,874401,
2024,874421,127.21415999999999,874421,52,874421,62367,874421,
2000,874431,121.60192,874431,52,874431,62390,874431,
2219,874451,131.05816,874451,51,874451,62412,874451,
1928,874461,128.13672,874461,53,874461,62443,874461,
2197,874471,124.44648000000001,874471,52,874471,62479,874471,
2025,874477,131.82696,874477,52,874477,62479,874471,
1925,874479,122.98576,874479,53,874479,62503,874480,
2118,874497,124.06208000000001,874497,52,874497,62495,874497,
2006,874501,122.832,874501,51,874501,62542,874499,
2050,874511,130.75064,874511,52,874511,62555,874511,
2140,874517,127.13728,874517,52,874517,62555,874511,
2169,874519,124.60023999999999,874519,52,874519,62552,874519,
2227,874521,134.51776,874521,52,874521,62552,874519,
2918,874535,128.9824,874535,53,874535,62555,874529,
2876,874541,126.13784000000001,874541,52,874541,62599,874539,
1014,874561,127.06039999999999,874561,51,874561,62641,874559,
1253,874565,133.90272,874565,51,874565,62641,874559,
1916,874579,132.36512,874579,51,874579,62653,874579,
2009,874601,131.98072,874601,51,874601,62708,874599,
2008,874605,129.98184,874605,52,874605,62708,874599,
2083,874629,129.44368,874629,52,874629,62754,874629,
2288,874637,126.06096,874637,52,874637,62770,874637,
1895,874649,132.36512,874649,52,874649,62797,874649,
2084,874667,126.44536,874667,51,874667,62819,874662,
2192,874677,133.2108,874677,52,874677,62881,874677,
2130,874679,130.1356,874679,52,874679,62881,874677,
1997,874705,130.59688,874705,53,874705,62879,874702,
2094,874719,134.90216,874719,54,874719,62948,874717,
2101,874729,130.44312,874729,54,874729,62915,874729,
2162,874731,138.9768,874731,54,874731,62929,874731,
2310,874737,126.59912,874737,55,874737,62929,874731,
2318,874739,135.97848,874739,53,874739,62936,874739,
2304,874741,136.82416,874741,55,874741,62948,874741,
2148,874761,138.66928,874761,52,874761,62997,874761,
2134,874767,137.20856,874767,53,874767,62997,874761,
2146,874769,135.36344,874769,53,874769,63001,874769,
2021,874787,136.36288,874787,51,874787,63026,874781,
2078,874789,135.9016,874789,51,874789,63038,874789,
2139,874797,135.97848,874797,51,874797,63035,874791,
1926,874801,137.51608,874801,51,874801,63045,874801,
1997,874811,133.28768,874811,51,874811,63037,874811,
2064,874817,135.44032,874817,52,874817,63037,874811,
1803,874841,135.74784,874841,52,874841,63061,874841,
1925,874849,137.36232,874849,51,874849,63053,874849,
1932,874851,132.21136,874851,51,874851,63046,874851,
1860,874857,140.5144,874857,51,874857,63046,874851,
2004,874871,135.44032,874871,51,874871,63038,874871,
2072,874879,142.20576,874879,50,874879,63046,874879,
2137,874891,137.66984,874891,50,874891,63050,874891,
2098,874899,133.05704,874899,50,874899,63060,874899,
2051,874911,139.20744,874911,50,874911,63035,874911,
2016,874921,134.05648,874921,50,874921,63034,874921,
2121,874931,138.74616,874931,50,874931,63047,874931,
2168,874937,137.13168,874937,52,874937,63047,874931,
2096,874939,137.13168,874939,50,874939,63023,874939,
2099,874959,138.9768,874959,51,874959,63071,874959,
2038,874969,133.82584,874969,52,874969,63084,874969,
2146,874975,140.59128,874975,51,874975,63084,874969,
2048,874979,139.59184,874979,52,874979,63083,874979,
2164,874991,135.59408,874991,52,874991,63081,874989,
2074,875001,142.28264,875001,52,875001,63091,874999,
2035,875011,137.8236,875011,52,875011,63112,875009,
2024,875015,137.74672,875015,52,875015,63112,875009,
2037,875017,134.7484,875017,52,875017,63086,875017,
2204,875031,141.89824,875031,51,875031,63090,875029,
1985,875039,136.97792,875039,51,875039,63065,875039,
1945,875047,132.36512,875047,53,875047,63091,875047,
2104,875059,137.90048,875059,52,875059,63098,875059,
2180,875071,144.3584,875071,51,875071,63121,875069,
2026,875091,135.82472,875091,52,875091,63137,875089,
2149,875095,136.36288,875095,51,875095,63137,875089,
2160,875097,142.28264,875097,51,875097,63131,875097,
2141,875099,139.28432,875099,51,875099,63132,875099,
2123,875115,144.51216,875115,50,875115,63143,875109,
2306,875131,142.74392,875131,51,875131,63146,875132,
2077,875169,134.51776,875169,52,875169,63213,875169,
2170,875175,143.43584,875175,51,875175,63197,875176,
1977,875179,141.97512,875179,51,875179,63183,875179,
1866,875181,139.05368,875181,51,875181,63219,875182,
2021,875189,146.97232,875189,52,875189,63231,875189,
1907,875201,142.12888,875201,52,875201,63198,875202,
2049,875221,142.8208,875221,52,875221,63240,875221,
1939,875269,140.28376,875269,52,875269,63291,875269,
2019,875271,142.12888,875271,51,875271,63272,875271,
2344,875279,142.4364,875279,52,875279,63300,875279,
2817,875287,138.28488,875287,52,875287,63278,875281,
1188,875321,147.818,875321,52,875321,63233,875321,
1803,875329,147.4336,875329,52,875329,63251,875329,
2140,875361,139.97624,875361,52,875361,63297,875361,
2088,875369,146.28040000000001,875369,52,875369,63306,875369,
2098,875371,144.3584,875371,51,875371,63276,875371,
2113,875377,145.81912,875377,51,875377,63276,875371,
2073,875379,142.59016,875379,51,875379,63313,875379,
2132,875391,141.97512,875391,52,875391,63312,875391,
2050,875421,147.0492,875421,51,875421,63359,875419,
2232,875439,149.43248,875439,53,875439,63347,875439,
2168,875455,151.50824,875455,53,875455,63352,875449,
2167,875461,146.28040000000001,875461,53,875461,63343,875459,
2214,875467,147.74112,875467,52,875467,63377,875467,
2233,875469,148.27928,875469,53,875469,63362,875469,
2248,875471,147.4336,875471,52,875471,63362,875469,
2217,875475,146.74168,875475,51,875475,63362,875469,
2256,875491,148.89432,875491,52,875491,63337,875489,
2215,875499,148.89432,875499,51,875499,63322,875499,
2268,875519,151.35448,875519,51,875519,63349,875520,
2182,875531,143.74336,875531,51,875531,63354,875530,
2108,875546,142.51328,875546,52,875546,63361,875540,
2190,875549,147.27984,875549,51,875549,63356,875550,
2221,875551,154.3528,875551,50,875551,63356,875550,
2137,875556,149.81688,875556,50,875556,63356,875550,
2078,875557,142.51328,875557,51,875557,63375,875557,
1971,875559,152.12328,875559,50,875559,63364,875560,
1872,875561,151.73888,875561,49,875561,63364,875560,
1921,875606,150.04752,875606,52,875606,63378,875600,
1839,875621,149.58624,875621,51,875621,63397,875620,
2014,875641,151.662,875641,51,875641,63408,875640,
1962,875646,143.05144,875646,51,875646,63408,875640,
1987,875647,148.66368,875647,51,875647,63363,875647,
2066,875649,146.20352,875649,51,875649,63388,875650,
2058,875676,150.04752,875676,52,875676,63345,875670,
2050,875677,155.19848,875677,51,875677,63386,875677,
2077,875686,150.58568,875686,51,875686,63344,875680,
2127,875697,148.9712,875697,52,875697,63417,875697,
1988,875721,151.96952,875721,52,875721,63393,875720,
2181,875729,155.506,875729,52,875729,63399,875730,
2241,875731,147.0492,875731,52,875731,63399,875730,
2226,875736,149.12496,875736,52,875736,63399,875730,
2023,875757,145.97288,875757,53,875757,63436,875751,
1993,875759,152.12328,875759,52,875759,63456,875759,
2168,875777,157.35112,875777,52,875777,63437,875771,
1988,875781,155.19848,875781,51,875781,63443,875781,
1940,875787,154.81408,875787,51,875787,63443,875781,
1989,875789,152.89208,875789,52,875789,63453,875789,
2166,875801,146.12664,875801,52,875801,63455,875801,
2121,875817,153.27648,875817,52,875817,63396,875811,
2125,875841,154.3528,875841,51,875841,63448,875841,
2137,875857,147.58736,875857,51,875857,63449,875851,
2148,875871,149.50936,875871,51,875871,63449,875871,
2170,875879,146.51104,875879,51,875879,63440,875880,
2089,875881,154.66032,875881,50,875881,63440,875880,
1923,875887,154.81408,875887,50,875887,63450,875887,
2054,875899,158.04304,875899,52,875899,63498,875899,
2069,875905,152.73832,875905,51,875905,63498,875899,
2054,875915,151.73888,875915,51,875915,63498,875909,
2028,875927,147.97176,875927,52,875927,63489,875927,
1954,875965,153.1996,875965,52,875965,63473,875959,
2009,875967,152.0464,875967,51,875967,63434,875967,
2091,875969,152.50768,875969,51,875969,63459,875969,
2171,875971,149.81688,875971,52,875971,63459,875969,
2680,875995,158.11992,875995,52,875995,63451,875989,
2942,876009,154.7372,876009,53,876009,63477,876009,
2786,876011,154.12216,876011,53,876011,63477,876009,
1905,876045,151.58512,876045,53,876045,63472,876039,
2128,876051,160.04192,876051,51,876051,63474,876049,
2134,876055,158.42744,876055,52,876055,63474,876049,
2144,876077,160.42632,876077,52,876077,63510,876077,
1997,876087,156.96672,876087,51,876087,63498,876082,
2101,876089,155.506,876089,52,876089,63516,876089,
2144,876099,160.1188,876099,52,876099,63498,876099,
2107,876101,148.2024,876101,52,876101,63455,876102,
2132,876107,156.96672,876107,51,876107,63525,876107,
2180,876109,155.96728,876109,52,876109,63525,876107,
2218,876111,155.35224,876111,52,876111,63531,876112,
2138,876129,158.1968,876129,52,876129,63476,876129,
2314,876135,155.96728,876135,53,876135,63518,876132,
1957,876147,157.428,876147,52,876147,63522,876142,
2242,876167,156.42856,876167,53,876167,63547,876162,
2132,876179,150.8932,876179,53,876179,63527,876179,
2233,876191,156.35168,876191,53,876191,63516,876192,
2131,876201,150.8932,876201,52,876201,63541,876201,
2090,876207,159.19624,876207,52,876207,63541,876201,
2162,876209,157.88928,876209,52,876209,63556,876209,
2251,876211,158.50432,876211,52,876211,63517,876211,
2288,876231,155.1216,876231,53,876231,63542,876231,
2246,876237,156.88984,876237,52,876237,63542,876231,
2138,876249,154.50656,876249,52,876249,63511,876249,
2166,876251,164.96224,876251,52,876251,63518,876251,
2010,876271,157.27424,876271,52,876271,63484,876271,
1916,876291,159.19624,876291,51,876291,63512,876291,
1937,876299,163.42464,876299,52,876299,63520,876299,
1912,876301,153.50712000000001,876301,52,876301,63527,876301,
1873,876327,154.42968,876327,52,876327,63512,876321,
1944,876329,165.42352,876329,51,876329,63530,876329,
2030,876331,155.506,876331,51,876331,63537,876331,
2024,876337,159.7344,876337,51,876337,63537,876331,
1856,876341,162.73272,876341,51,876341,63549,876341,
2130,876379,154.89096,876379,52,876379,63568,876379,
2118,876389,160.96448,876389,52,876389,63560,876389,
2145,876391,162.96336,876391,51,876391,63560,876389,
2155,876395,162.73272,876395,52,876395,63560,876389,
2136,876397,160.34944,876397,51,876397,63583,876397,
2137,876411,163.80904,876411,52,876411,63565,876409,
1980,876447,160.19568,876447,52,876447,63530,876447,
1988,876449,160.34944,876449,52,876449,63524,876449,
2150,876475,161.57952,876475,52,876475,63536,876469,
2082,876477,167.038,876477,52,876477,63541,876477,
2007,876479,157.58176,876479,51,876479,63516,876479,
2260,876536,165.57728,876536,51,876536,63594,876536,
2224,876539,166.42296,876539,51,876539,63567,876540,
2281,876551,168.03744,876551,51,876551,63574,876550,
2094,876559,168.26808,876559,50,876559,63585,876560,
2028,876561,162.4252,876561,52,876561,63585,876560,
1962,876566,164.34720000000002,876566,51,876566,63624,876566,
1987,876581,167.26864,876581,48,876581,63598,876580,
1938,876589,168.11432,876589,51,876589,63586,876590,
1997,876591,162.27144,876591,52,876591,63586,876590,
2134,876611,170.57448,876611,51,876611,63542,876610,
2093,876619,167.72992,876619,52,876619,63518,876620,
2098,876621,167.4224,876621,52,876621,63518,876620,
2076,876626,168.5756,876626,51,876626,63538,876626,
1962,876641,167.8068,876641,51,876641,63551,876640,
2184,876676,161.88704,876676,52,876676,63590,876676,
2128,876686,168.88312,876686,51,876686,63593,876686,
2292,876689,172.18896,876689,52,876689,63570,876690,
2402,876691,161.34888,876691,53,876691,63570,876690,
2936,876701,167.038,876701,53,876701,63575,876700,
2902,876709,162.34832,876709,51,876709,63569,876706,
2713,876711,172.72712,876711,52,876711,63540,876711,
1723,876717,169.49816,876717,51,876717,63540,876711,
1408,876719,169.65192,876719,51,876719,63597,876719,
1402,876731,165.57728,876731,51,876731,63570,876731,
1829,876741,170.80512,876741,52,876741,63594,876741,
1987,876749,167.19176,876749,51,876749,63589,876749,
2043,876751,168.49872,876751,53,876751,63564,876751,
2100,876757,165.34664,876757,52,876757,63564,876751,
2131,876791,163.65528,876791,52,876791,63600,876791,
2185,876797,171.03576,876797,51,876797,63600,876791,
2162,876799,171.95832000000001,876799,52,876799,63600,876791,
2128,876811,175.18728000000002,876811,51,876811,63609,876811,
2244,876831,170.4976,876831,51,876831,63653,876829,
1977,876865,165.19288,876865,52,876865,63604,876859,
2138,876877,173.49592,876877,52,876877,63645,876877,
2050,876881,170.42072,876881,52,876881,63584,876879,
2167,876887,167.88368,876887,52,876887,63622,876887,
1988,876905,170.4976,876905,51,876905,63600,876899,
2076,876907,171.95832000000001,876907,52,876907,63584,876907,
2205,876909,172.26584,876909,51,876909,63607,876909,
2097,876945,177.49368,876945,52,876945,63616,876939,
2179,876947,165.96168,876947,52,876947,63607,876947,
2234,876949,175.18728000000002,876949,51,876949,63616,876949,
1976,876969,165.80792,876969,52,876969,63629,876969,
2010,876971,175.64856,876971,50,876971,63629,876969,
1814,876989,173.5728,876989,51,876989,63610,876988,
1936,877005,171.49704,877005,51,877005,63621,877006,
2100,877049,176.41736,877049,51,877049,63656,877049,
2114,877051,169.65192,877051,52,877051,63602,877052,
2078,877055,171.03576,877055,52,877055,63602,877052,
2041,877057,174.41848,877057,52,877057,63602,877052,
1987,877059,174.41848,877059,52,877059,63655,877059,
2112,877091,173.49592,877091,52,877091,63627,877091,
2113,877117,173.9572,877117,53,877117,63664,877111,
2099,877131,177.10928,877131,52,877131,63677,877131,
1968,877137,174.18784,877137,53,877137,63677,877131,
1921,877139,173.64968,877139,52,877139,63672,877139,
2051,877147,171.72768,877147,52,877147,63670,877141,
2065,877181,170.34384,877181,53,877181,63679,877181,
2166,877201,179.10816,877201,52,877201,63629,877202,
2105,877208,175.8792,877208,52,877208,63629,877202,
2062,877218,175.72544,877218,52,877218,63650,877212,
2202,877231,182.79840000000002,877231,52,877231,63644,877231,
2182,877236,176.72488,877236,52,877236,63644,877231,
1941,877279,180.18448,877279,52,877279,63622,877280,
1886,877281,173.80344,877281,52,877281,63622,877280,
2062,877289,174.18784,877289,52,877289,63651,877290,
2121,877291,182.02960000000002,877291,52,877291,63651,877290,
2080,877296,177.18616,877296,52,877296,63651,877290,
2040,877297,179.87696,877297,52,877297,63673,877298,
1960,877319,180.56888,877319,52,877319,63654,877320,
2142,877329,178.26248,877329,52,877329,63667,877330,
2125,877336,182.49088,877336,51,877336,63667,877330,
2132,877349,178.64688,877349,51,877349,63676,877350,
1992,877359,175.72544,877359,52,877359,63676,877359,
2763,877375,181.41456,877375,52,877375,63649,877369,
2816,877377,181.95272,877377,52,877377,63668,877377,
2843,877379,181.03016,877379,51,877379,63671,877379,
2881,877381,178.72376,877381,52,877381,63671,877379,
1370,877399,181.2608,877399,50,877399,63635,877399,
1084,877401,180.18448,877401,51,877401,63635,877399,
1502,877411,178.72376,877411,51,877411,63647,877409,
1770,877419,175.34104,877419,52,877419,63657,877419,
1769,877421,183.5672,877421,51,877421,63657,877419,
2114,877449,174.80288000000002,877449,52,877449,63654,877449,
2048,877455,182.64464,877455,52,877455,63654,877449,
2008,877459,180.64576,877459,52,877459,63669,877459,
2022,877461,179.80008,877461,52,877461,63669,877459,
2117,877465,184.10536,877465,52,877465,63669,877459,
2179,877467,177.49368,877467,52,877467,63677,877467,
2004,877501,178.03184,877501,52,877501,63636,877502,
1936,877521,189.25632000000002,877521,52,877521,63703,877520,
2269,877556,184.56664,877556,52,877556,63648,877556,
2228,877561,180.33824,877561,53,877561,63629,877560,
2160,877569,183.5672,877569,52,877569,63635,877570,
2157,877579,179.7232,877579,52,877579,63654,877580,
2174,877581,188.71816,877581,52,877581,63654,877580,
2200,877589,184.95104,877589,52,877589,63671,877590,
2131,877601,180.95328,877601,52,877601,63684,877600,
2304,877611,186.6424,877611,52,877611,63679,877610,
2230,877631,179.56944000000001,877631,51,877631,63680,877630,
1980,877639,178.41624000000002,877639,50,877639,63679,877640,
1915,877641,184.87416,877641,50,877641,63679,877640,
1891,877651,183.25968,877651,50,877651,63657,877651,
1784,877657,180.41512,877657,50,877657,63657,877651,
2029,877671,184.25912,877671,51,877671,63688,877671,
1897,877677,186.56552,877677,51,877677,63688,877671,
1833,877679,183.5672,877679,51,877679,63688,877671,
1818,877687,180.72264,877687,52,877687,63696,877681,
1893,877707,185.56608,877707,52,877707,63706,877701,
1997,877717,179.95384,877717,52,877717,63723,877711,
1966,877719,188.25688,877719,51,877719,63695,877719,
1928,877721,187.56496,877721,52,877721,63700,877721,
2097,877731,183.72096,877731,52,877731,63702,877731,
2020,877737,190.25576,877737,52,877737,63702,877731,
1911,877759,187.48808,877759,52,877759,63672,877759,
1902,877761,182.49088,877761,52,877761,63710,877761,
2052,877781,188.33376,877781,52,877781,63689,877780,
2240,877785,185.8736,877785,52,877785,63689,877780,
2017,877807,188.5644,877807,51,877807,63720,877807,
2209,877815,190.79392,877815,52,877815,63728,877809,
2134,877817,182.56776,877817,52,877817,63739,877817,
2033,877819,189.94824,877819,52,877819,63730,877819,
1958,877821,183.5672,877821,52,877821,63730,877819,
1981,877839,186.258,877839,53,877839,63743,877839,
1963,877845,194.17664,877845,51,877845,63743,877839,
2164,877877,185.1048,877877,52,877877,63701,877877,
2086,877879,191.10144,877879,51,877879,63675,877879,
2204,877889,188.87192,877889,52,877889,63693,877889,
2061,877899,183.79784,877899,51,877899,63714,877899,
2041,877901,194.56104,877901,51,877901,63714,877899,
2109,877905,194.25352,877905,51,877905,63714,877899,
2161,877907,183.5672,877907,51,877907,63703,877907,
2026,877925,184.95104,877925,51,877925,63712,877919,
2152,877929,184.95104,877929,52,877929,63722,877929,
2179,877931,193.79224,877931,51,877931,63722,877929,
2022,877967,192.4084,877967,53,877967,63693,877962,
2085,877975,190.17888,877975,51,877975,63676,877972,
2068,877977,187.0268,877977,51,877977,63676,877972,
2061,877979,196.71368,877979,51,877979,63746,877979,
1912,877997,191.79336,877997,52,877997,63700,877992,
2107,878017,193.48472,878017,51,878017,63735,878012,
2177,878039,197.79,878039,52,878039,63718,878039,
2112,878041,186.02736000000002,878041,51,878041,63729,878041,
2425,878049,194.02288000000001,878049,52,878049,63735,878049,
2857,878061,196.02176,878061,52,878061,63753,878061,
2561,878071,188.9488,878071,51,878071,63770,878071,
1540,878077,190.8708,878077,52,878077,63770,878071,
1932,878121,196.94432,878121,51,878121,63763,878121,
2158,878131,194.17664,878131,52,878131,63753,878131,
2057,878137,193.10032,878137,51,878137,63753,878131,
2066,878157,196.02176,878157,52,878157,63696,878151,
2092,878227,191.10144,878227,52,878227,63755,878221,
2138,878229,201.09584,878229,52,878229,63740,878229,
2163,878231,190.33264,878231,52,878231,63766,878231,
2123,878279,192.25464,878279,52,878279,63762,878279,
2235,878289,200.17328,878289,51,878289,63749,878289,
2038,878315,200.71144,878315,51,878315,63781,878309,
2000,878317,194.56104,878317,51,878317,63750,878317,
1979,878319,198.71256,878319,51,878319,63753,878319,
1750,878337,202.86408,878337,51,878337,63736,878337,
1859,878345,199.48136,878345,51,878345,63715,878339,
1944,878381,198.86632,878381,51,878381,63764,878379,
2042,878389,198.86632,878389,51,878389,63745,878389,
2062,878391,193.79224,878391,51,878391,63745,878389,
2013,878395,194.56104,878395,51,878395,63745,878389,
1893,878401,198.63568,878401,51,878401,63764,878399,
2043,878405,200.78832,878405,52,878405,63764,878399,
2144,878407,200.94208,878407,51,878407,63758,878407,
2212,878409,197.63624000000002,878409,51,878409,63758,878409,
1931,878425,197.32872,878425,52,878425,63747,878422,
2094,878467,198.48192,878467,52,878467,63793,878467,
1970,878481,199.25072,878481,51,878481,63746,878481,
2170,878491,198.5588,878491,52,878491,63755,878491,
2062,878499,194.63792,878499,52,878499,63753,878499,
1924,878519,202.17216,878519,52,878519,63759,878519,
1939,878521,198.78944,878521,52,878521,63818,878522,
2104,878567,198.02064000000001,878567,52,878567,63800,878561,
2180,878569,199.86576,878569,52,878569,63824,878569,
1988,878581,197.63624000000002,878581,52,878581,63807,878581,
2206,878591,205.01672,878591,51,878591,63799,878591,
2121,878597,203.40224,878597,51,878597,63799,878591,
2086,878599,202.09528,878599,52,878599,63774,878599,
2277,878611,196.40616,878611,52,878611,63748,878611,
2022,878641,199.48136,878641,51,878641,63760,878641,
1853,878657,203.70976000000002,878657,52,878657,63772,878651,
1850,878659,201.86464,878659,51,878659,63780,878659,
2098,878687,204.7092,878687,52,878687,63782,878681,
2040,878711,203.47912,878711,52,878711,63809,878710,
2333,878747,204.3248,878747,51,878747,63784,878740,
2768,878755,209.86016,878755,52,878755,63785,878749,
2782,878761,207.24624,878761,52,878761,63760,878759,
2881,878765,207.86128,878765,52,878765,63760,878759,
2921,878767,204.24792,878767,51,878767,63818,878767,
1266,878781,208.86072000000001,878781,51,878781,63814,878779,
1044,878787,202.24904,878787,51,878787,63788,878787,
1209,878789,206.40056,878789,51,878789,63781,878789,
2095,878811,210.39832,878811,52,878811,63755,878809,
2188,878829,211.78216,878829,52,878829,63757,878829,
2250,878831,201.63400000000001,878831,51,878831,63757,878829,
2156,878837,209.93704,878837,51,878837,63787,878837,
2043,878839,203.40224,878839,51,878839,63797,878839,
1956,878841,208.39944,878841,51,878841,63797,878839,
2092,878859,207.0156,878859,51,878859,63788,878859,
2056,878861,202.17216,878861,52,878861,63788,878859,
1933,878901,206.86184,878901,52,878901,63794,878902,
2206,878929,209.7064,878929,53,878929,63821,878927,
2267,878931,210.0908,878931,52,878931,63835,878932,
2190,878959,209.78328,878959,52,878959,63782,878959,
2318,878971,209.62952,878971,51,878971,63799,878971,
2108,878979,213.9348,878979,52,878979,63799,878979,
2086,878999,205.17048,878999,51,878999,63828,878999,
2057,879029,205.55488,879029,52,879029,63849,879029,
1998,879031,214.47296,879031,50,879031,63833,879031,
1920,879051,205.63176,879051,52,879051,63844,879051,
1939,879081,204.78608,879081,51,879081,63769,879081,
2076,879087,215.54928,879087,52,879087,63769,879081,
1906,879101,213.39664,879101,52,879101,63789,879101,
2106,879111,207.4,879111,52,879111,63810,879111,
1985,879117,214.78048,879117,52,879117,63810,879111,
2104,879157,213.78104,879157,51,879157,63816,879151,
2033,879179,210.8596,879179,52,879179,63839,879179,
1988,879185,210.0908,879185,52,879185,63839,879179,
2084,879189,210.39832,879189,52,879189,63846,879189,
2003,879199,217.24064,879199,52,879199,63843,879199,
1988,879201,209.322,879201,52,879201,63843,879199,
2096,879205,206.6312,879205,52,879205,63843,879199,
2192,879207,212.55096,879207,52,879207,63842,879207,
2093,879249,207.47688,879249,51,879249,63820,879249,
2138,879251,213.78104,879251,51,879251,63820,879249,
2108,879271,212.08968000000002,879271,51,879271,63780,879269,
2027,879281,217.01,879281,50,879281,63792,879279,
2078,879285,216.39496,879285,51,879285,63792,879279,
2137,879287,210.16768,879287,50,879287,63806,879287,
2123,879315,219.47016,879315,51,879315,63822,879309,
2057,879319,215.16488,879319,52,879319,63816,879319,
2041,879321,216.39496,879321,51,879321,63816,879319,
2129,879325,217.47128,879325,51,879325,63816,879319,
1948,879341,217.47128,879341,51,879341,63816,879342,
2164,879347,211.01336,879347,52,879347,63858,879347,
2000,879361,210.24456,879361,52,879361,63863,879359,
2257,879369,211.244,879369,52,879369,63828,879369,
2240,879371,219.54704,879371,52,879371,63787,879372,
2107,879375,216.6256,879375,51,879375,63787,879372,
2061,879407,212.62784,879407,52,879407,63840,879406,
1898,879421,209.78328,879421,52,879421,63864,879422,
1942,879425,212.3972,879425,51,879425,63864,879422,
1993,879427,220.77712,879427,51,879427,63864,879422,
2048,879429,210.0908,879429,52,879429,63875,879429,
1987,879441,217.62504,879441,51,879441,63881,879442,
2037,879449,218.24008,879449,52,879449,63884,879447,
2027,879461,219.23952,879461,52,879461,63874,879461,
2088,879471,219.23952,879471,52,879471,63869,879471,
2004,879481,213.24288,879481,52,879481,63869,879481,
2210,879487,220.54648,879487,52,879487,63869,879481,
2462,879491,218.54760000000002,879491,52,879491,63848,879491,
2970,879501,219.93144,879501,52,879501,63856,879501,
1137,879521,215.93368,879521,52,879521,63833,879522,
1292,879531,218.77824,879531,51,879531,63848,879532,
1618,879535,223.1604,879535,51,879535,63848,879532,
2114,879549,218.16320000000002,879549,52,879549,63827,879550,
2091,879556,214.08856,879556,52,879556,63827,879550,
2173,879591,224.54424,879591,51,879591,63865,879590,
1965,879599,223.08352,879599,50,879599,63864,879600,
2107,879606,222.54536000000002,879606,52,879606,63864,879600,
2178,879607,218.39384,879607,52,879607,63885,879608,
2242,879609,221.39216000000002,879609,52,879609,63838,879610,
2240,879651,223.62168,879651,52,879651,63836,879650,
2184,879656,222.3916,879656,51,879656,63836,879650,
2144,879669,222.23784,879669,52,879669,63823,879668,
2352,879711,222.16096000000002,879711,51,879711,63882,879711,
1973,879721,222.85288,879721,50,879721,63879,879721,
2189,879727,222.54536000000002,879727,51,879727,63886,879728,
2316,879729,218.39384,879729,52,879729,63886,879728,
2134,879751,218.70136,879751,51,879751,63884,879751,
1864,879821,217.31752,879821,50,879821,63890,879821,
2040,879831,220.31584,879831,51,879831,63904,879831,
1997,879837,215.4724,879837,50,879837,63782,879838,
2063,879851,216.85624,879851,49,879851,63898,879851,
1973,879861,216.39496,879861,50,879861,63890,879861,
2111,879911,215.01112,879911,50,879911,63916,879911,
2062,879919,214.54984000000002,879919,50,879919,63904,879919,
2011,879921,214.54984000000002,879921,50,879921,63907,879921,
2157,879949,214.16544000000002,879949,51,879949,63915,879949,
2160,879971,213.39664,879971,52,879971,63882,879971,
2236,879991,214.3192,879991,51,879991,63873,879991,
1928,879998,213.5504,879998,51,879998,63873,879991,
1897,879999,213.47352,879999,51,879999,63836,879999,
1921,880001,213.31976,880001,51,880001,63879,880001,
2082,880008,213.24288,880008,51,880008,63879,880001,
1938,880021,212.85848000000001,880021,51,880021,63882,880021,
2200,880031,212.93536,880031,52,880031,63869,880031,
2208,880049,212.7816,880049,52,880049,63884,880049,
2049,880077,212.24344,880077,51,880077,63892,880077,
2119,880097,212.0128,880097,52,880097,63913,880097,
2010,880101,211.93592,880101,51,880101,63907,880100,
2125,880106,211.47464,880106,51,880106,63907,880100,
2209,880107,211.70528000000002,880107,52,880107,63918,880107,
2011,880121,211.6284,880121,51,880121,63856,880120,
2261,880129,211.55152,880129,52,880129,63855,880130,
1817,880141,211.32088000000002,880141,52,880141,63851,880140,
2086,880169,210.8596,880169,52,880169,63907,880170,
2001,880177,210.93648000000002,880177,51,880177,63880,880177,
1971,880199,210.4752,880199,51,880199,63897,880200,
1970,880201,210.62896,880201,51,880201,63897,880200,
2091,880206,210.55208000000002,880206,51,880206,63897,880200,
2184,880207,210.4752,880207,52,880207,63909,880207,
2238,880209,210.32144,880209,52,880209,63896,880210,
2057,880226,210.24456,880226,51,880226,63893,880220,
3044,880257,209.86016,880257,52,880257,63857,880257,
2068,880265,209.86016,880265,52,880265,63881,880259,
1725,880267,209.86016,880267,51,880267,63892,880267,
1404,880269,209.7064,880269,51,880269,63897,880269,
1146,880271,209.78328,880271,51,880271,63883,880272,
1045,880279,209.78328,880279,51,880279,63917,880279,
1938,880297,209.47576,880297,51,880297,63926,880297,
1935,880299,209.55264,880299,51,880299,63926,880297,
2051,880317,209.24512000000001,880317,52,880317,63891,880316,
1997,880341,209.01448,880341,52,880341,63885,880341,
2090,880361,208.86072000000001,880361,52,880361,63907,880361,
2297,880371,208.70696,880371,52,880371,63920,880371,
2148,880377,208.39944,880377,51,880377,63920,880371,
2082,880379,208.5532,880379,52,880379,63920,880379,
2283,880447,207.7844,880447,52,880447,63927,880441,
2215,880467,207.7844,880467,52,880467,63893,880461,
2188,880479,207.86128,880479,52,880479,63890,880479,
2081,880499,207.47688,880499,52,880499,63905,880499,
2082,880501,207.32312000000002,880501,52,880501,63907,880501,
1946,880527,206.93872000000002,880527,50,880527,63947,880527,
1977,880531,206.70808,880531,51,880531,63930,880530,
1828,880549,206.70808,880549,51,880549,63956,880550,
2069,880575,206.16992,880575,51,880575,63946,880570,
1903,880581,206.09304,880581,51,880581,63933,880579,
1947,880585,205.93928,880585,50,880585,63933,880579,
2125,880605,205.78552,880605,51,880605,63906,880600,
2148,880607,205.78552,880607,51,880607,63897,880607,
2028,880621,205.478,880621,51,880621,63891,880619,
2016,880635,205.478,880635,51,880635,63912,880630,
2202,880647,205.17048,880647,51,880647,63914,880647,
2217,880649,205.32424,880649,51,880649,63929,880650,
2196,880651,205.478,880651,52,880651,63929,880650,
2099,880667,204.93984,880667,51,880667,63944,880667,
2158,880669,204.86296000000002,880669,52,880669,63929,880670,
2180,880671,204.93984,880671,51,880671,63929,880670,
2155,880675,204.86296000000002,880675,51,880675,63929,880670,
2110,880677,204.93984,880677,51,880677,63917,880677,
1915,880699,204.86296000000002,880699,50,880699,63900,880698,
1996,880715,204.3248,880715,51,880715,63927,880709,
2021,880739,204.17104,880739,52,880739,63950,880739,
2040,880741,204.24792,880741,51,880741,63905,880742,
2196,880747,204.01728,880747,51,880747,63953,880747,
2218,880749,204.17104,880749,51,880749,63953,880747,
2138,880767,203.78664,880767,51,880767,63906,880766,
2173,880769,203.86352,880769,52,880769,63931,880769,
2107,880791,203.63288,880791,51,880791,63947,880789,
2021,880797,203.556,880797,52,880797,63928,880796,
2133,880829,203.09472,880829,51,880829,63936,880829,
2116,880831,203.24848,880831,51,880831,63947,880831,
2050,880837,203.09472,880837,51,880837,63947,880831,
2070,880839,202.94096,880839,51,880839,63948,880839,
2099,880841,202.94096,880841,51,880841,63955,880841,
2057,880861,202.86408,880861,51,880861,63966,880861,
2019,880881,202.55656,880881,51,880881,63967,880881,
2157,880889,202.4028,880889,51,880889,63992,880889,
2022,880911,202.47968,880911,51,880911,63944,880911,
1926,880917,202.24904,880917,51,880917,63944,880911,
1942,880919,202.24904,880919,52,880919,63931,880919,
2144,880931,202.09528,880931,51,880931,63905,880931,
2079,880967,201.55712,880967,51,880967,63936,880961,
2313,880991,201.24960000000002,880991,51,880991,63946,880991,
2398,881017,201.01896,881017,51,881017,63924,881017,
2070,881019,200.86520000000002,881019,51,881019,63966,881020,
1738,881021,200.94208,881021,51,881021,63966,881020,
1178,881025,200.78832,881025,51,881025,63966,881020,
2056,881051,200.71144,881051,51,881051,63950,881050,
2188,881067,200.40392,881067,51,881067,63923,881067,
2101,881077,200.32704,881077,52,881077,63919,881077,
2049,881079,200.25016,881079,51,881079,63903,881080,
2157,881087,200.25016,881087,51,881087,63915,881087,
2196,881089,199.94264,881089,51,881089,63931,881090,
2116,881107,199.94264,881107,51,881107,63941,881107,
2133,881111,199.94264,881111,51,881111,63964,881110,
2228,881129,199.712,881129,52,881129,63952,881130,
2209,881131,199.78888,881131,51,881131,63952,881130,
2193,881151,199.3276,881151,52,881151,63950,881150,
2243,881169,199.3276,881169,51,881169,63974,881170,
2083,881175,199.40448,881175,52,881175,63974,881170,
2011,881179,199.3276,881179,51,881179,63957,881179,
2140,881185,199.55824,881185,52,881185,63957,881179,
2191,881187,199.40448,881187,51,881187,63943,881187,
2202,881189,199.3276,881189,52,881189,63947,881189,
2194,881191,199.3276,881191,52,881191,63937,881192,
2171,881215,199.17384,881215,50,881215,63930,881216,
2113,881217,199.09696,881217,51,881217,63930,881216,
2130,881237,198.86632,881237,51,881237,63981,881237,
2000,881257,198.71256,881257,48,881257,63957,881256,
1961,881279,198.40504,881279,52,881279,63988,881279,
1976,881281,198.40504,881281,51,881281,63992,881282,
2043,881287,198.1744,881287,51,881287,64002,881287,
1970,881309,197.86688,881309,51,881309,63978,881309,
1984,881327,197.79,881327,51,881327,63989,881321,
2021,881331,197.63624000000002,881331,53,881331,63993,881331,
1910,881337,197.63624000000002,881337,51,881337,63993,881331,
2170,881371,197.25184000000002,881371,52,881371,63995,881371,
2025,881379,197.0212,881379,52,881379,63976,881379,
2030,881381,196.94432,881381,51,881381,63959,881381,
2077,881409,196.86744000000002,881409,51,881409,63956,881409,
2103,881421,196.71368,881421,51,881421,63962,881421,
2159,881429,196.71368,881429,52,881429,63965,881429,
2150,881431,196.55992,881431,51,881431,63972,881431,
1929,881477,196.17552,881477,51,881477,63986,881471,
1900,881481,196.09864,881481,49,881481,64001,881480,
1986,881485,196.09864,881485,52,881485,64001,881480,
2087,881487,195.56048,881487,51,881487,63995,881487,
2177,881489,196.09864,881489,51,881489,64001,881489,
2067,881541,195.4836,881541,51,881541,64017,881539,
2031,881561,195.0992,881561,50,881561,63981,881559,
